Minute of Year [min]	Potsdam.Altitude [Deg]	Potsdam.Azimuth [Deg]	Shanghai.Altitude [Deg]	Shanghai.Azimuth [Deg]	Kaxgar.Altitude [Deg]	Kaxgar.Azimuth [Deg]	Singapur.Altitude [Deg]	Singapur.Azimuth [Deg]	Lima.Altitude [Deg]	Lima.Azimuth [Deg]	Denver.Altitude [Deg]	Denver.Azimuth [Deg]	Barrow.Altitude [Deg]	Barrow.Azimuth [Deg]	Melbourne.Altitude [Deg]	Melbourne.Azimuth [Deg]
90720	-44.1848	352.733	-65.5338	355.495	-36.5065	294.722	-69.9804	253.764	-70.4686	196.317	-56.8858	354.236	-23.5995	332.645	-44.8575	191.919
90721	-44.2034	353.079	-65.5492	356.094	-36.6815	294.941	-70.2203	253.576	-70.5362	195.602	-56.9041	354.689	-23.6359	332.913	-44.898	191.574
90722	-44.221	353.424	-65.5624	356.693	-36.8561	295.161	-70.46	253.384	-70.6007	194.881	-56.9209	355.143	-23.672	333.181	-44.9374	191.228
90723	-44.2378	353.77	-65.5734	357.293	-37.0305	295.382	-70.6995	253.187	-70.6623	194.156	-56.9361	355.597	-23.7077	333.449	-44.9756	190.881
90724	-44.2536	354.116	-65.5821	357.893	-37.2045	295.604	-70.9387	252.985	-70.7208	193.426	-56.9499	356.052	-23.7431	333.718	-45.0127	190.534
90725	-44.2685	354.462	-65.5886	358.493	-37.3783	295.827	-71.1777	252.777	-70.7764	192.692	-56.9621	356.507	-23.7782	333.986	-45.0485	190.186
90726	-44.2825	354.808	-65.5928	359.094	-37.5516	296.051	-71.4164	252.564	-70.8288	191.954	-56.9727	356.962	-23.8129	334.255	-45.0832	189.838
90727	-44.2956	355.155	-65.5948	359.695	-37.7247	296.276	-71.6548	252.345	-70.8782	191.212	-56.9819	357.417	-23.8473	334.524	-45.1167	189.489
90728	-44.3078	355.501	-65.5945	0.295674	-37.8974	296.502	-71.8929	252.12	-70.9245	190.466	-56.9895	357.872	-23.8814	334.793	-45.149	189.141
90729	-44.319	355.848	-65.5921	0.896544	-38.0698	296.729	-72.1307	251.889	-70.9676	189.717	-56.9956	358.328	-23.9151	335.062	-45.1801	188.791
90730	-44.3293	356.195	-65.5873	1.49725	-38.2418	296.956	-72.3682	251.652	-71.0075	188.965	-57.0002	358.784	-23.9484	335.331	-45.21	188.441
90731	-44.3387	356.541	-65.5803	2.0977	-38.4135	297.185	-72.6054	251.408	-71.0443	188.21	-57.0033	359.24	-23.9815	335.6	-45.2387	188.091
90732	-44.3472	356.888	-65.5711	2.69778	-38.5848	297.414	-72.8422	251.156	-71.0779	187.452	-57.0048	359.696	-24.0141	335.87	-45.2663	187.741
90733	-44.3548	357.236	-65.5597	3.2974	-38.7558	297.645	-73.0787	250.898	-71.1083	186.691	-57.0048	0.151537	-24.0465	336.139	-45.2926	187.39
90734	-44.3614	357.583	-65.546	3.89645	-38.9264	297.877	-73.3148	250.632	-71.1354	185.929	-57.0032	0.607472	-24.0785	336.409	-45.3177	187.038
90735	-44.3671	357.93	-65.5301	4.49485	-39.0966	298.109	-73.5505	250.359	-71.1594	185.164	-57.0002	1.06335	-24.1101	336.679	-45.3416	186.687
90736	-44.3719	358.277	-65.5119	5.09248	-39.2665	298.343	-73.7858	250.077	-71.18	184.397	-56.9956	1.51914	-24.1414	336.949	-45.3643	186.335
90737	-44.3758	358.625	-65.4915	5.68926	-39.436	298.577	-74.0207	249.786	-71.1974	183.629	-56.9894	1.97481	-24.1724	337.219	-45.3858	185.983
90738	-44.3787	358.972	-65.469	6.28508	-39.6051	298.813	-74.2551	249.487	-71.2115	182.859	-56.9818	2.43031	-24.203	337.489	-45.4061	185.631
90739	-44.3807	359.319	-65.4442	6.87985	-39.7739	299.05	-74.4891	249.179	-71.2223	182.089	-56.9726	2.88562	-24.2332	337.759	-45.4252	185.278
90740	-44.3818	359.667	-65.4172	7.47349	-39.9422	299.287	-74.7226	248.861	-71.2298	181.318	-56.9619	3.34069	-24.2631	338.029	-45.4431	184.925
90741	-44.3819	0.0139603	-65.388	8.06588	-40.1101	299.526	-74.9556	248.532	-71.2341	180.546	-56.9497	3.79549	-24.2927	338.3	-45.4597	184.572
90742	-44.3812	0.361375	-65.3566	8.65695	-40.2777	299.766	-75.188	248.194	-71.2351	179.774	-56.9359	4.24999	-24.3219	338.57	-45.4751	184.219
90743	-44.3795	0.708777	-65.323	9.2466	-40.4449	300.007	-75.4199	247.844	-71.2327	179.003	-56.9206	4.70415	-24.3507	338.841	-45.4894	183.865
90744	-44.3769	1.05615	-65.2873	9.83474	-40.6116	300.249	-75.6512	247.483	-71.2271	178.231	-56.9038	5.15794	-24.3792	339.111	-45.5024	183.511
90745	-44.3733	1.4035	-65.2494	10.4213	-40.7779	300.492	-75.8819	247.109	-71.2181	177.46	-56.8855	5.61131	-24.4073	339.382	-45.5142	183.157
90746	-44.3688	1.7508	-65.2094	11.0062	-40.9438	300.736	-76.112	246.723	-71.2059	176.69	-56.8657	6.06424	-24.4351	339.653	-45.5247	182.803
90747	-44.3635	2.09804	-65.1672	11.5893	-41.1093	300.982	-76.3414	246.324	-71.1904	175.921	-56.8444	6.51669	-24.4626	339.925	-45.534	182.449
90748	-44.3571	2.44522	-65.1229	12.1705	-41.2744	301.228	-76.57	245.911	-71.1717	175.154	-56.8216	6.96863	-24.4896	340.196	-45.5422	182.095
90749	-44.3499	2.79232	-65.0765	12.7499	-41.439	301.476	-76.798	245.483	-71.1497	174.388	-56.7972	7.42003	-24.5163	340.467	-45.5491	181.74
90750	-44.3417	3.13934	-65.028	13.3272	-41.6032	301.724	-77.0251	245.041	-71.1244	173.624	-56.7714	7.87084	-24.5427	340.738	-45.5547	181.386
90751	-44.3326	3.48627	-64.9773	13.9024	-41.767	301.974	-77.2514	244.582	-71.0959	172.862	-56.744	8.32104	-24.5687	341.01	-45.5592	181.031
90752	-44.3226	3.83308	-64.9246	14.4755	-41.9303	302.225	-77.4768	244.106	-71.0641	172.103	-56.7152	8.7706	-24.5943	341.281	-45.5624	180.677
90753	-44.3117	4.17978	-64.8698	15.0464	-42.0932	302.478	-77.7014	243.613	-71.0292	171.346	-56.6849	9.21947	-24.6196	341.553	-45.5644	180.322
90754	-44.2998	4.52636	-64.813	15.615	-42.2556	302.731	-77.9249	243.101	-70.9911	170.592	-56.6531	9.66764	-24.6445	341.825	-45.5651	179.967
90755	-44.2871	4.8728	-64.7542	16.1812	-42.4175	302.985	-78.1474	242.569	-70.9498	169.841	-56.6198	10.1151	-24.6691	342.097	-45.5647	179.613
90756	-44.2734	5.21909	-64.6933	16.7449	-42.579	303.241	-78.3688	242.017	-70.9053	169.093	-56.5851	10.5617	-24.6933	342.369	-45.563	179.258
90757	-44.2588	5.56523	-64.6304	17.3062	-42.74	303.498	-78.5891	241.444	-70.8578	168.349	-56.5488	11.0076	-24.7171	342.641	-45.5601	178.904
90758	-44.2432	5.9112	-64.5655	17.8649	-42.9005	303.757	-78.8082	240.847	-70.8071	167.609	-56.5111	11.4526	-24.7406	342.913	-45.556	178.549
90759	-44.2268	6.25699	-64.4986	18.421	-43.0605	304.016	-79.0259	240.227	-70.7533	166.872	-56.4719	11.8967	-24.7637	343.185	-45.5506	178.194
90760	-44.2094	6.60259	-64.4297	18.9745	-43.22	304.277	-79.2424	239.581	-70.6965	166.14	-56.4313	12.34	-24.7864	343.457	-45.544	177.84
90761	-44.1912	6.94801	-64.3589	19.5252	-43.3791	304.539	-79.4573	238.908	-70.6367	165.412	-56.3893	12.7823	-24.8088	343.73	-45.5362	177.486
90762	-44.172	7.29321	-64.2862	20.0731	-43.5376	304.802	-79.6707	238.208	-70.5738	164.689	-56.3458	13.2236	-24.8308	344.002	-45.5272	177.131
90763	-44.1519	7.6382	-64.2116	20.6181	-43.6957	305.066	-79.8825	237.477	-70.508	163.97	-56.3008	13.664	-24.8525	344.275	-45.517	176.777
90764	-44.1309	7.98296	-64.1351	21.1604	-43.8532	305.332	-80.0925	236.715	-70.4393	163.256	-56.2544	14.1034	-24.8737	344.547	-45.5055	176.423
90765	-44.109	8.32749	-64.0566	21.6996	-44.0102	305.599	-80.3006	235.92	-70.3676	162.547	-56.2066	14.5418	-24.8946	344.82	-45.4928	176.07
90766	-44.0861	8.67178	-63.9763	22.2359	-44.1666	305.868	-80.5068	235.09	-70.2931	161.844	-56.1574	14.9791	-24.9152	345.093	-45.4789	175.716
90767	-44.0624	9.01581	-63.8942	22.7692	-44.3226	306.137	-80.7109	234.224	-70.2157	161.145	-56.1067	15.4153	-24.9354	345.366	-45.4638	175.363
90768	-44.0378	9.35957	-63.8102	23.2995	-44.478	306.408	-80.9127	233.317	-70.1356	160.452	-56.0547	15.8503	-24.9552	345.639	-45.4474	175.009
90769	-44.0122	9.70307	-63.7245	23.8267	-44.6329	306.681	-81.1121	232.37	-70.0526	159.765	-56.0012	16.2843	-24.9746	345.912	-45.4299	174.656
90770	-43.9858	10.0463	-63.6369	24.3507	-44.7872	306.954	-81.3089	231.38	-69.9669	159.083	-55.9464	16.717	-24.9936	346.185	-45.4111	174.304
90771	-43.9584	10.3892	-63.5475	24.8716	-44.9409	307.229	-81.5029	230.343	-69.8785	158.407	-55.8901	17.1486	-25.0123	346.458	-45.3911	173.951
90772	-43.9302	10.7318	-63.4564	25.3893	-45.0941	307.506	-81.694	229.258	-69.7874	157.738	-55.8325	17.579	-25.0307	346.731	-45.3699	173.599
90773	-43.9011	11.0741	-63.3636	25.9038	-45.2467	307.784	-81.882	228.122	-69.6937	157.073	-55.7735	18.0081	-25.0486	347.005	-45.3475	173.247
90774	-43.871	11.4161	-63.269	26.4151	-45.3988	308.063	-82.0666	226.932	-69.5974	156.415	-55.7131	18.436	-25.0662	347.278	-45.3239	172.895
90775	-43.8401	11.7578	-63.1727	26.9231	-45.5503	308.343	-82.2475	225.686	-69.4985	155.764	-55.6514	18.8626	-25.0834	347.552	-45.2991	172.544
90776	-43.8083	12.0991	-63.0748	27.4278	-45.7011	308.625	-82.4245	224.381	-69.3971	155.118	-55.5883	19.2879	-25.1002	347.825	-45.2731	172.193
90777	-43.7756	12.4401	-62.9752	27.9292	-45.8514	308.909	-82.5974	223.013	-69.2932	154.479	-55.5239	19.7119	-25.1167	348.099	-45.2459	171.843
90778	-43.742	12.7807	-62.8739	28.4273	-46.0011	309.193	-82.7659	221.581	-69.1868	153.846	-55.4581	20.1345	-25.1327	348.372	-45.2174	171.492
90779	-43.7076	13.121	-62.771	28.9221	-46.1502	309.479	-82.9295	220.081	-69.0781	153.219	-55.391	20.5558	-25.1484	348.646	-45.1878	171.142
90780	-43.6722	13.4609	-62.6665	29.4135	-46.2986	309.767	-83.088	218.511	-68.9669	152.599	-55.3226	20.9757	-25.1638	348.92	-45.157	170.793
90781	-43.636	13.8004	-62.5604	29.9015	-46.4465	310.056	-83.2411	216.868	-68.8534	151.985	-55.2529	21.3942	-25.1787	349.194	-45.125	170.444
90782	-43.5989	14.1395	-62.4527	30.3862	-46.5937	310.347	-83.3883	215.15	-68.7376	151.378	-55.1819	21.8113	-25.1933	349.468	-45.0918	170.095
90783	-43.5609	14.4783	-62.3434	30.8675	-46.7403	310.639	-83.5292	213.356	-68.6196	150.777	-55.1096	22.2269	-25.2075	349.742	-45.0575	169.747
90784	-43.522	14.8166	-62.2327	31.3454	-46.8862	310.932	-83.6635	211.483	-68.4993	150.183	-55.036	22.6411	-25.2213	350.016	-45.0219	169.399
90785	-43.4823	15.1545	-62.1204	31.8198	-47.0315	311.227	-83.7906	209.53	-68.3769	149.595	-54.9611	23.0539	-25.2347	350.29	-44.9852	169.052
90786	-43.4417	15.492	-62.0066	32.2909	-47.1761	311.524	-83.9102	207.499	-68.2522	149.014	-54.8849	23.4651	-25.2478	350.564	-44.9473	168.705
90787	-43.4002	15.8291	-61.8913	32.7586	-47.3201	311.822	-84.0218	205.389	-68.1255	148.439	-54.8075	23.8749	-25.2605	350.838	-44.9082	168.359
90788	-43.3579	16.1657	-61.7746	33.2229	-47.4633	312.121	-84.1249	203.201	-67.9967	147.871	-54.7288	24.2831	-25.2728	351.112	-44.8679	168.013
90789	-43.3147	16.5019	-61.6564	33.6838	-47.6059	312.422	-84.2191	200.938	-67.8658	147.309	-54.6489	24.6898	-25.2847	351.387	-44.8265	167.667
90790	-43.2707	16.8376	-61.5368	34.1412	-47.7479	312.725	-84.3039	198.604	-67.733	146.754	-54.5677	25.095	-25.2963	351.661	-44.7839	167.323
90791	-43.2258	17.1729	-61.4158	34.5953	-47.8891	313.029	-84.3789	196.203	-67.5981	146.205	-54.4853	25.4987	-25.3074	351.935	-44.7402	166.978
90792	-43.18	17.5077	-61.2934	35.046	-48.0296	313.335	-84.4438	193.742	-67.4613	145.663	-54.4017	25.9007	-25.3182	352.21	-44.6953	166.635
90793	-43.1334	17.842	-61.1697	35.4932	-48.1694	313.642	-84.4981	191.227	-67.3227	145.127	-54.3169	26.3012	-25.3286	352.484	-44.6492	166.292
90794	-43.086	18.1759	-61.0445	35.9371	-48.3085	313.951	-84.5416	188.667	-67.1821	144.598	-54.2309	26.7002	-25.3387	352.759	-44.602	165.949
90795	-43.0377	18.5092	-60.9181	36.3777	-48.4469	314.261	-84.5739	186.071	-67.0397	144.075	-54.1437	27.0975	-25.3483	353.033	-44.5536	165.607
90796	-42.9886	18.8421	-60.7903	36.8148	-48.5846	314.573	-84.5949	183.45	-66.8956	143.558	-54.0553	27.4932	-25.3576	353.308	-44.5041	165.266
90797	-42.9386	19.1745	-60.6612	37.2486	-48.7215	314.887	-84.6045	180.813	-66.7496	143.048	-53.9657	27.8873	-25.3665	353.582	-44.4535	164.925
90798	-42.8878	19.5064	-60.5309	37.6791	-48.8576	315.202	-84.6025	178.173	-66.602	142.543	-53.875	28.2798	-25.375	353.857	-44.4017	164.585
90799	-42.8361	19.8377	-60.3992	38.1062	-48.993	315.518	-84.5891	175.54	-66.4526	142.046	-53.7831	28.6706	-25.3831	354.132	-44.3488	164.246
90800	-42.7837	20.1685	-60.2664	38.53	-49.1277	315.837	-84.5642	172.926	-66.3016	141.554	-53.6901	29.0598	-25.3908	354.406	-44.2948	163.907
90801	-42.7304	20.4988	-60.1323	38.9505	-49.2615	316.157	-84.5281	170.341	-66.1489	141.068	-53.5959	29.4474	-25.3982	354.681	-44.2396	163.569
90802	-42.6763	20.8286	-59.9969	39.3677	-49.3946	316.478	-84.481	167.795	-65.9946	140.588	-53.5006	29.8333	-25.4052	354.956	-44.1833	163.232
90803	-42.6213	21.1578	-59.8604	39.7816	-49.5269	316.801	-84.4231	165.298	-65.8388	140.114	-53.4042	30.2176	-25.4118	355.231	-44.1259	162.895
90804	-42.5656	21.4865	-59.7227	40.1923	-49.6584	317.126	-84.3547	162.856	-65.6814	139.647	-53.3066	30.6001	-25.418	355.505	-44.0674	162.559
90805	-42.509	21.8146	-59.5838	40.5997	-49.7891	317.453	-84.2763	160.477	-65.5225	139.185	-53.208	30.9811	-25.4238	355.78	-44.0078	162.224
90806	-42.4516	22.1422	-59.4438	41.0039	-49.919	317.781	-84.1883	158.167	-65.3621	138.729	-53.1082	31.3603	-25.4292	356.055	-43.9471	161.889
90807	-42.3934	22.4692	-59.3026	41.4049	-50.048	318.111	-84.0911	155.929	-65.2002	138.278	-53.0074	31.7379	-25.4343	356.33	-43.8853	161.555
90808	-42.3344	22.7956	-59.1604	41.8027	-50.1763	318.443	-83.985	153.767	-65.037	137.834	-52.9055	32.1138	-25.4389	356.605	-43.8224	161.222
90809	-42.2746	23.1215	-59.017	42.1974	-50.3037	318.776	-83.8707	151.683	-64.8723	137.395	-52.8026	32.488	-25.4432	356.88	-43.7584	160.89
90810	-42.2141	23.4468	-58.8725	42.5889	-50.4302	319.111	-83.7485	149.679	-64.7062	136.961	-52.6986	32.8605	-25.4471	357.155	-43.6933	160.558
90811	-42.1527	23.7715	-58.727	42.9772	-50.5559	319.447	-83.6189	147.753	-64.5388	136.533	-52.5935	33.2313	-25.4506	357.43	-43.6271	160.227
90812	-42.0905	24.0956	-58.5804	43.3625	-50.6807	319.786	-83.4824	145.907	-64.3701	136.111	-52.4874	33.6004	-25.4538	357.704	-43.5599	159.897
90813	-42.0275	24.4191	-58.4328	43.7447	-50.8047	320.125	-83.3393	144.138	-64.2001	135.694	-52.3803	33.9678	-25.4565	357.979	-43.4916	159.568
90814	-41.9638	24.742	-58.2841	44.1238	-50.9278	320.467	-83.1901	142.446	-64.0289	135.282	-52.2721	34.3336	-25.4589	358.255	-43.4222	159.239
90815	-41.8993	25.0643	-58.1345	44.4999	-51.0499	320.81	-83.0351	140.828	-63.8563	134.875	-52.163	34.6976	-25.4609	358.529	-43.3518	158.912
90816	-41.834	25.386	-57.9838	44.873	-51.1712	321.156	-82.8748	139.282	-63.6826	134.474	-52.0528	35.06	-25.4625	358.805	-43.2803	158.585
90817	-41.7679	25.7071	-57.8322	45.2431	-51.2916	321.502	-82.7095	137.805	-63.5077	134.078	-51.9417	35.4206	-25.4637	359.079	-43.2078	158.259
90818	-41.701	26.0276	-57.6795	45.6103	-51.411	321.851	-82.5395	136.395	-63.3316	133.686	-51.8295	35.7795	-25.4645	359.354	-43.1342	157.934
90819	-41.6334	26.3474	-57.526	45.9744	-51.5296	322.201	-82.3652	135.049	-63.1544	133.3	-51.7164	36.1368	-25.465	359.63	-43.0596	157.609
90820	-41.5651	26.6666	-57.3715	46.3357	-51.6472	322.553	-82.1868	133.763	-62.976	132.919	-51.6024	36.4923	-25.465	359.904	-42.984	157.286
90821	-41.4959	26.9852	-57.216	46.6941	-51.7638	322.907	-82.0046	132.537	-62.7965	132.542	-51.4873	36.8462	-25.4647	0.179427	-42.9073	156.963
90822	-41.426	27.3031	-57.0597	47.0496	-51.8795	323.262	-81.8189	131.365	-62.616	132.171	-51.3714	37.1983	-25.464	0.454441	-42.8296	156.642
90823	-41.3554	27.6205	-56.9024	47.4023	-51.9943	323.619	-81.6298	130.247	-62.4344	131.803	-51.2545	37.5488	-25.4629	0.729451	-42.7508	156.321
90824	-41.284	27.9371	-56.7443	47.7521	-52.108	323.978	-81.4377	129.178	-62.2517	131.441	-51.1366	37.8976	-25.4614	1.00446	-42.6711	156.001
90825	-41.2119	28.2531	-56.5853	48.0992	-52.2208	324.339	-81.2427	128.157	-62.0681	131.083	-51.0179	38.2447	-25.4595	1.27946	-42.5904	155.681
90826	-41.139	28.5685	-56.4254	48.4435	-52.3326	324.701	-81.045	127.182	-61.8834	130.73	-50.8982	38.5901	-25.4573	1.55445	-42.5086	155.363
90827	-41.0654	28.8832	-56.2647	48.785	-52.4434	325.065	-80.8448	126.249	-61.6977	130.381	-50.7776	38.9338	-25.4547	1.82943	-42.4259	155.046
90828	-40.9911	29.1973	-56.1031	49.1238	-52.5532	325.431	-80.6422	125.356	-61.5111	130.037	-50.6561	39.2759	-25.4516	2.1044	-42.3421	154.729
90829	-40.916	29.5107	-55.9408	49.46	-52.6619	325.798	-80.4374	124.502	-61.3236	129.696	-50.5338	39.6162	-25.4482	2.37935	-42.2574	154.414
90830	-40.8402	29.8234	-55.7776	49.7935	-52.7697	326.168	-80.2305	123.684	-61.1351	129.361	-50.4106	39.9549	-25.4444	2.6543	-42.1717	154.099
90831	-40.7637	30.1355	-55.6136	50.1243	-52.8764	326.539	-80.0217	122.9	-60.9457	129.029	-50.2865	40.292	-25.4403	2.92922	-42.085	153.785
90832	-40.6864	30.4469	-55.4488	50.4525	-52.9821	326.911	-79.8111	122.149	-60.7555	128.701	-50.1615	40.6274	-25.4357	3.20413	-41.9973	153.473
90833	-40.6085	30.7576	-55.2832	50.7781	-53.0866	327.286	-79.5987	121.429	-60.5644	128.378	-50.0357	40.9611	-25.4308	3.47903	-41.9087	153.161
90834	-40.5298	31.0677	-55.1169	51.1012	-53.1902	327.662	-79.3848	120.738	-60.3724	128.058	-49.909	41.2932	-25.4254	3.7539	-41.8191	152.85
90835	-40.4505	31.377	-54.9498	51.4218	-53.2927	328.04	-79.1693	120.074	-60.1796	127.743	-49.7815	41.6236	-25.4197	4.02874	-41.7286	152.54
90836	-40.3704	31.6857	-54.782	51.7398	-53.394	328.42	-78.9525	119.437	-59.9859	127.431	-49.6532	41.9524	-25.4136	4.30357	-41.6371	152.231
90837	-40.2896	31.9937	-54.6135	52.0553	-53.4943	328.801	-78.7342	118.825	-59.7915	127.123	-49.5241	42.2796	-25.4072	4.57837	-41.5446	151.923
90838	-40.2082	32.3011	-54.4442	52.3684	-53.5935	329.184	-78.5148	118.236	-59.5962	126.819	-49.3941	42.6052	-25.4003	4.85314	-41.4513	151.615
90839	-40.126	32.6077	-54.2742	52.679	-53.6916	329.569	-78.2941	117.67	-59.4002	126.519	-49.2634	42.9291	-25.3931	5.12789	-41.357	151.309
90840	-40.0432	32.9137	-54.1035	52.9873	-53.7886	329.955	-78.0723	117.125	-59.2035	126.222	-49.1319	43.2514	-25.3854	5.40261	-41.2617	151.004
90841	-39.9597	33.2189	-53.9322	53.2931	-53.8844	330.344	-77.8494	116.6	-59.0059	125.929	-48.9995	43.5721	-25.3774	5.67729	-41.1656	150.699
90842	-39.8755	33.5235	-53.7601	53.5966	-53.9791	330.733	-77.6255	116.095	-58.8077	125.639	-48.8664	43.8912	-25.369	5.95195	-41.0685	150.396
90843	-39.7906	33.8274	-53.5874	53.8978	-54.0726	331.125	-77.4006	115.607	-58.6087	125.353	-48.7326	44.2087	-25.3603	6.22657	-40.9705	150.094
90844	-39.705	34.1306	-53.414	54.1966	-54.165	331.518	-77.1749	115.137	-58.4091	125.071	-48.5979	44.5246	-25.3511	6.50115	-40.8717	149.792
90845	-39.6188	34.4331	-53.24	54.4932	-54.2562	331.913	-76.9483	114.684	-58.2087	124.792	-48.4626	44.8389	-25.3416	6.7757	-40.7719	149.492
90846	-39.5319	34.7349	-53.0653	54.7875	-54.3462	332.31	-76.7209	114.246	-58.0077	124.516	-48.3264	45.1517	-25.3317	7.05021	-40.6712	149.192
90847	-39.4444	35.036	-52.89	55.0796	-54.4351	332.708	-76.4927	113.824	-57.806	124.243	-48.1895	45.4629	-25.3214	7.32467	-40.5696	148.894
90848	-39.3562	35.3364	-52.7141	55.3695	-54.5227	333.108	-76.2638	113.415	-57.6036	123.974	-48.052	45.7725	-25.3107	7.5991	-40.4672	148.596
90849	-39.2674	35.636	-52.5376	55.6572	-54.6092	333.509	-76.0341	113.021	-57.4007	123.707	-47.9136	46.0806	-25.2996	7.87348	-40.3639	148.3
90850	-39.1778	35.935	-52.3604	55.9427	-54.6944	333.912	-75.8039	112.639	-57.197	123.444	-47.7746	46.3872	-25.2882	8.14782	-40.2597	148.004
90851	-39.0877	36.2333	-52.1827	56.2261	-54.7784	334.317	-75.5729	112.27	-56.9928	123.184	-47.6349	46.6922	-25.2764	8.42212	-40.1546	147.709
90852	-38.9969	36.5309	-52.0044	56.5074	-54.8612	334.723	-75.3414	111.912	-56.788	122.927	-47.4944	46.9957	-25.2642	8.69637	-40.0487	147.416
90853	-38.9055	36.8278	-51.8255	56.7866	-54.9428	335.131	-75.1093	111.566	-56.5825	122.674	-47.3533	47.2977	-25.2516	8.97056	-39.9419	147.123
90854	-38.8135	37.1239	-51.646	57.0637	-55.0231	335.54	-74.8767	111.231	-56.3765	122.422	-47.2115	47.5981	-25.2386	9.24471	-39.8343	146.832
90855	-38.7208	37.4194	-51.466	57.3388	-55.1021	335.951	-74.6435	110.906	-56.17	122.174	-47.069	47.8971	-25.2253	9.51881	-39.7259	146.541
90856	-38.6275	37.7142	-51.2854	57.6119	-55.1799	336.364	-74.4099	110.591	-55.9628	121.929	-46.9258	48.1946	-25.2116	9.79285	-39.6166	146.251
90857	-38.5336	38.0082	-51.1043	57.883	-55.2564	336.778	-74.1757	110.286	-55.7551	121.686	-46.782	48.4906	-25.1975	10.0668	-39.5064	145.963
90858	-38.4391	38.3015	-50.9227	58.1521	-55.3316	337.194	-73.9411	109.99	-55.5469	121.447	-46.6375	48.7851	-25.183	10.3408	-39.3955	145.675
90859	-38.3439	38.5942	-50.7405	58.4192	-55.4055	337.611	-73.7061	109.702	-55.3381	121.21	-46.4924	49.0782	-25.1682	10.6146	-39.2837	145.388
90860	-38.2482	38.8861	-50.5578	58.6844	-55.4781	338.029	-73.4706	109.423	-55.1288	120.975	-46.3466	49.3698	-25.153	10.8885	-39.1711	145.102
90861	-38.1518	39.1773	-50.3746	58.9478	-55.5494	338.449	-73.2348	109.152	-54.919	120.744	-46.2002	49.6599	-25.1374	11.1622	-39.0577	144.818
90862	-38.0548	39.4678	-50.1909	59.2092	-55.6194	338.871	-72.9985	108.889	-54.7087	120.515	-46.0532	49.9487	-25.1214	11.4359	-38.9435	144.534
90863	-37.9573	39.7576	-50.0067	59.4688	-55.688	339.294	-72.7619	108.633	-54.4979	120.288	-45.9055	50.2359	-25.105	11.7095	-38.8285	144.251
90864	-37.8591	40.0467	-49.822	59.7265	-55.7553	339.718	-72.525	108.384	-54.2866	120.064	-45.7572	50.5218	-25.0883	11.9831	-38.7128	143.97
90865	-37.7604	40.3351	-49.6368	59.9825	-55.8213	340.144	-72.2877	108.142	-54.0748	119.843	-45.6084	50.8063	-25.0712	12.2566	-38.5962	143.689
90866	-37.6611	40.6228	-49.4511	60.2366	-55.886	340.571	-72.05	107.907	-53.8626	119.623	-45.4589	51.0893	-25.0537	12.53	-38.4788	143.409
90867	-37.5612	40.9098	-49.265	60.489	-55.9492	340.999	-71.8121	107.678	-53.6499	119.407	-45.3088	51.371	-25.0359	12.8034	-38.3607	143.13
90868	-37.4607	41.196	-49.0784	60.7396	-56.0111	341.429	-71.5739	107.455	-53.4367	119.192	-45.1581	51.6513	-25.0177	13.0767	-38.2418	142.852
90869	-37.3596	41.4816	-48.8913	60.9884	-56.0716	341.86	-71.3354	107.238	-53.2231	118.98	-45.0069	51.9302	-24.9991	13.3499	-38.1221	142.576
90870	-37.258	41.7665	-48.7038	61.2356	-56.1308	342.293	-71.0965	107.027	-53.0091	118.77	-44.8551	52.2078	-24.9801	13.6231	-38.0017	142.3
90871	-37.1558	42.0506	-48.5159	61.4811	-56.1885	342.726	-70.8575	106.821	-52.7946	118.563	-44.7027	52.484	-24.9608	13.8962	-37.8805	142.025
90872	-37.0531	42.3341	-48.3275	61.7249	-56.2449	343.161	-70.6181	106.62	-52.5798	118.358	-44.5497	52.7589	-24.9411	14.1692	-37.7586	141.751
90873	-36.9498	42.6168	-48.1387	61.967	-56.2998	343.597	-70.3786	106.425	-52.3645	118.154	-44.3962	53.0324	-24.921	14.4421	-37.636	141.478
90874	-36.8459	42.8989	-47.9495	62.2075	-56.3534	344.034	-70.1388	106.234	-52.1488	117.954	-44.2422	53.3046	-24.9005	14.7149	-37.5126	141.206
90875	-36.7415	43.1802	-47.7599	62.4464	-56.4055	344.473	-69.8987	106.048	-51.9327	117.755	-44.0876	53.5755	-24.8797	14.9877	-37.3884	140.935
90876	-36.6366	43.4609	-47.5698	62.6837	-56.4562	344.913	-69.6584	105.867	-51.7161	117.558	-43.9324	53.8451	-24.8585	15.2604	-37.2636	140.666
90877	-36.5311	43.7408	-47.3793	62.9194	-56.5055	345.353	-69.418	105.69	-51.4993	117.363	-43.7767	54.1133	-24.837	15.533	-37.138	140.397
90878	-36.425	44.02	-47.1885	63.1536	-56.5533	345.795	-69.1773	105.517	-51.282	117.171	-43.6205	54.3803	-24.8151	15.8055	-37.0117	140.129
90879	-36.3185	44.2986	-46.9972	63.3862	-56.5997	346.238	-68.9364	105.349	-51.0643	116.98	-43.4638	54.6461	-24.7928	16.0779	-36.8847	139.862
90880	-36.2114	44.5765	-46.8056	63.6174	-56.6446	346.682	-68.6953	105.184	-50.8463	116.791	-43.3066	54.9105	-24.7701	16.3503	-36.757	139.596
90881	-36.1037	44.8536	-46.6136	63.847	-56.6881	347.127	-68.454	105.023	-50.628	116.604	-43.1489	55.1737	-24.7471	16.6226	-36.6286	139.331
90882	-35.9956	45.1301	-46.4212	64.0751	-56.7301	347.572	-68.2126	104.866	-50.4092	116.419	-42.9906	55.4357	-24.7237	16.8947	-36.4995	139.066
90883	-35.8869	45.4059	-46.2284	64.3018	-56.7706	348.019	-67.971	104.713	-50.1902	116.236	-42.8319	55.6964	-24.7	17.1668	-36.3697	138.803
90884	-35.7778	45.681	-46.0353	64.5271	-56.8097	348.467	-67.7292	104.563	-49.9707	116.055	-42.6726	55.9559	-24.6759	17.4388	-36.2392	138.541
90885	-35.6681	45.9554	-45.8418	64.7508	-56.8473	348.915	-67.4872	104.417	-49.751	115.876	-42.5129	56.2142	-24.6514	17.7107	-36.1081	138.28
90886	-35.5579	46.2291	-45.6479	64.9732	-56.8834	349.365	-67.2451	104.273	-49.5309	115.698	-42.3527	56.4713	-24.6266	17.9825	-35.9763	138.02
90887	-35.4472	46.5022	-45.4537	65.1942	-56.918	349.815	-67.0028	104.133	-49.3105	115.523	-42.1921	56.7271	-24.6014	18.2542	-35.8438	137.76
90888	-35.336	46.7745	-45.2592	65.4139	-56.9511	350.266	-66.7604	103.996	-49.0897	115.349	-42.0309	56.9818	-24.5758	18.5258	-35.7107	137.502
90889	-35.2243	47.0462	-45.0643	65.6321	-56.9827	350.718	-66.5178	103.862	-48.8687	115.176	-41.8693	57.2353	-24.5499	18.7974	-35.5768	137.245
90890	-35.1121	47.3172	-44.8691	65.849	-57.0128	351.17	-66.2751	103.731	-48.6473	115.006	-41.7073	57.4877	-24.5236	19.0688	-35.4424	136.988
90891	-34.9994	47.5875	-44.6735	66.0646	-57.0414	351.623	-66.0323	103.603	-48.4256	114.837	-41.5447	57.7388	-24.497	19.3401	-35.3073	136.733
90892	-34.8863	47.8571	-44.4777	66.2789	-57.0685	352.077	-65.7893	103.477	-48.2036	114.669	-41.3818	57.9889	-24.47	19.6114	-35.1715	136.478
90893	-34.7726	48.1261	-44.2815	66.4919	-57.0941	352.532	-65.5463	103.355	-47.9813	114.504	-41.2184	58.2377	-24.4426	19.8825	-35.0352	136.224
90894	-34.6585	48.3944	-44.085	66.7036	-57.1182	352.987	-65.303	103.234	-47.7587	114.339	-41.0545	58.4855	-24.4149	20.1535	-34.8981	135.972
90895	-34.5439	48.6621	-43.8882	66.914	-57.1407	353.442	-65.0597	103.116	-47.5359	114.177	-40.8902	58.7321	-24.3869	20.4244	-34.7605	135.72
90896	-34.4288	48.929	-43.691	67.1232	-57.1617	353.899	-64.8163	103.001	-47.3127	114.016	-40.7255	58.9776	-24.3584	20.6952	-34.6222	135.469
90897	-34.3133	49.1953	-43.4936	67.3312	-57.1812	354.355	-64.5727	102.888	-47.0893	113.856	-40.5604	59.2221	-24.3297	20.9659	-34.4833	135.219
90898	-34.1973	49.461	-43.2959	67.5379	-57.1992	354.812	-64.329	102.777	-46.8656	113.698	-40.3948	59.4654	-24.3005	21.2365	-34.3438	134.97
90899	-34.0809	49.726	-43.0979	67.7435	-57.2156	355.27	-64.0853	102.668	-46.6416	113.542	-40.2289	59.7076	-24.2711	21.507	-34.2037	134.722
90900	-33.964	49.9903	-42.8996	67.9478	-57.2304	355.728	-63.8414	102.562	-46.4174	113.387	-40.0625	59.9488	-24.2412	21.7774	-34.063	134.475
90901	-33.8466	50.254	-42.701	68.151	-57.2438	356.186	-63.5974	102.458	-46.1929	113.233	-39.8957	60.1889	-24.211	22.0477	-33.9217	134.228
90902	-33.7288	50.517	-42.5021	68.353	-57.2556	356.644	-63.3533	102.356	-45.9682	113.081	-39.7286	60.4279	-24.1805	22.3178	-33.7798	133.983
90903	-33.6106	50.7794	-42.3029	68.5539	-57.2659	357.103	-63.1091	102.255	-45.7431	112.93	-39.561	60.6659	-24.1496	22.5879	-33.6373	133.739
90904	-33.4919	51.0411	-42.1035	68.7536	-57.2746	357.562	-62.8649	102.157	-45.5179	112.781	-39.393	60.9029	-24.1184	22.8578	-33.4943	133.495
90905	-33.3727	51.3022	-41.9038	68.9523	-57.2817	358.021	-62.6205	102.061	-45.2924	112.632	-39.2247	61.1388	-24.0868	23.1276	-33.3506	133.252
90906	-33.2532	51.5626	-41.7039	69.1498	-57.2874	358.48	-62.376	101.966	-45.0666	112.486	-39.056	61.3737	-24.0549	23.3973	-33.2064	133.011
90907	-33.1332	51.8224	-41.5036	69.3462	-57.2914	358.94	-62.1315	101.874	-44.8406	112.34	-38.8869	61.6076	-24.0226	23.6669	-33.0616	132.77
90908	-33.0127	52.0815	-41.3032	69.5416	-57.294	359.399	-61.8869	101.782	-44.6144	112.196	-38.7174	61.8405	-23.99	23.9364	-32.9163	132.53
90909	-32.8919	52.3401	-41.1024	69.7359	-57.295	359.859	-61.6422	101.693	-44.388	112.053	-38.5475	62.0724	-23.957	24.2057	-32.7704	132.291
90910	-32.7706	52.598	-40.9014	69.9291	-57.2944	0.318043	-61.3974	101.606	-44.1613	111.912	-38.3773	62.3034	-23.9237	24.4749	-32.6239	132.052
90911	-32.649	52.8552	-40.7002	70.1214	-57.2923	0.77755	-61.1526	101.52	-43.9344	111.771	-38.2068	62.5333	-23.8901	24.7441	-32.4769	131.815
90912	-32.5269	53.1119	-40.4987	70.3126	-57.2886	1.23699	-60.9077	101.435	-43.7072	111.632	-38.0359	62.7623	-23.8561	25.013	-32.3293	131.578
90913	-32.4044	53.3679	-40.297	70.5027	-57.2834	1.69632	-60.6627	101.352	-43.4799	111.494	-37.8646	62.9903	-23.8218	25.2819	-32.1812	131.343
90914	-32.2814	53.6233	-40.0951	70.6919	-57.2766	2.15551	-60.4176	101.271	-43.2523	111.358	-37.693	63.2174	-23.7871	25.5506	-32.0326	131.108
90915	-32.1581	53.878	-39.8929	70.8801	-57.2683	2.61452	-60.1725	101.191	-43.0245	111.222	-37.521	63.4435	-23.7521	25.8193	-31.8834	130.874
90916	-32.0344	54.1322	-39.6905	71.0673	-57.2585	3.07331	-59.9273	101.113	-42.7966	111.088	-37.3487	63.6687	-23.7167	26.0877	-31.7337	130.641
90917	-31.9103	54.3857	-39.4879	71.2536	-57.2471	3.53185	-59.682	101.036	-42.5684	110.954	-37.1761	63.893	-23.681	26.3561	-31.5835	130.408
90918	-31.7858	54.6387	-39.285	71.4389	-57.2342	3.99009	-59.4367	100.96	-42.34	110.822	-37.0031	64.1164	-23.645	26.6243	-31.4327	130.177
90919	-31.6609	54.891	-39.0819	71.6233	-57.2197	4.44801	-59.1912	100.885	-42.1114	110.691	-36.8299	64.3389	-23.6087	26.8925	-31.2814	129.946
90920	-31.5357	55.1427	-38.8786	71.8067	-57.2037	4.90557	-58.9458	100.813	-41.8826	110.562	-36.6562	64.5604	-23.572	27.1604	-31.1297	129.716
90921	-31.41	55.3939	-38.6751	71.9893	-57.1862	5.36272	-58.7003	100.741	-41.6536	110.433	-36.4823	64.7811	-23.5349	27.4283	-30.9774	129.488
90922	-31.284	55.6444	-38.4714	72.1709	-57.1671	5.81944	-58.4547	100.67	-41.4244	110.305	-36.3081	65.0009	-23.4976	27.696	-30.8246	129.259
90923	-31.1575	55.8943	-38.2675	72.3516	-57.1465	6.27569	-58.2091	100.601	-41.1951	110.178	-36.1335	65.2199	-23.4599	27.9636	-30.6713	129.032
90924	-31.0308	56.1437	-38.0633	72.5315	-57.1244	6.73144	-57.9634	100.533	-40.9655	110.053	-35.9587	65.438	-23.4219	28.231	-30.5176	128.805
90925	-30.9036	56.3924	-37.859	72.7105	-57.1007	7.18664	-57.7176	100.466	-40.7358	109.928	-35.7835	65.6552	-23.3835	28.4984	-30.3633	128.58
90926	-30.7761	56.6406	-37.6545	72.8886	-57.0755	7.64127	-57.4718	100.4	-40.5058	109.805	-35.608	65.8715	-23.3448	28.7656	-30.2085	128.355
90927	-30.6482	56.8882	-37.4498	73.0659	-57.0489	8.09529	-57.226	100.335	-40.2758	109.682	-35.4323	66.0871	-23.3058	29.0326	-30.0533	128.131
90928	-30.52	57.1352	-37.2449	73.2424	-57.0207	8.54866	-56.9801	100.272	-40.0455	109.56	-35.2562	66.3018	-23.2665	29.2995	-29.8976	127.907
90929	-30.3913	57.3816	-37.0398	73.418	-56.9909	9.00135	-56.7341	100.209	-39.815	109.44	-35.0799	66.5157	-23.2268	29.5663	-29.7414	127.685
90930	-30.2624	57.6275	-36.8345	73.5928	-56.9597	9.45334	-56.4881	100.147	-39.5844	109.32	-34.9033	66.7287	-23.1868	29.833	-29.5848	127.463
90931	-30.1331	57.8728	-36.629	73.7668	-56.927	9.90457	-56.2421	100.087	-39.3536	109.201	-34.7264	66.941	-23.1465	30.0995	-29.4276	127.242
90932	-30.0034	58.1175	-36.4233	73.94	-56.8928	10.355	-55.996	100.028	-39.1227	109.083	-34.5492	67.1525	-23.1059	30.3659	-29.2701	127.022
90933	-29.8734	58.3617	-36.2175	74.1124	-56.8571	10.8047	-55.7499	99.9689	-38.8916	108.966	-34.3717	67.3632	-23.065	30.6321	-29.112	126.803
90934	-29.7431	58.6053	-36.0115	74.284	-56.8199	11.2535	-55.5037	99.9114	-38.6603	108.85	-34.194	67.5731	-23.0237	30.8982	-28.9535	126.584
90935	-29.6124	58.8483	-35.8053	74.4549	-56.7812	11.7014	-55.2575	99.8547	-38.4288	108.735	-34.016	67.7822	-22.9821	31.1641	-28.7946	126.366
90936	-29.4814	59.0908	-35.599	74.6251	-56.7411	12.1485	-55.0112	99.799	-38.1972	108.621	-33.8378	67.9905	-22.9402	31.43	-28.6352	126.149
90937	-29.3501	59.3327	-35.3924	74.7944	-56.6994	12.5946	-54.7649	99.7442	-37.9655	108.508	-33.6592	68.1981	-22.898	31.6956	-28.4754	125.933
90938	-29.2184	59.5741	-35.1858	74.9631	-56.6564	13.0397	-54.5185	99.6902	-37.7336	108.395	-33.4804	68.405	-22.8554	31.9611	-28.3151	125.717
90939	-29.0864	59.815	-34.9789	75.131	-56.6118	13.4839	-54.2722	99.6372	-37.5015	108.284	-33.3014	68.6111	-22.8126	32.2265	-28.1544	125.502
90940	-28.9541	60.0553	-34.7719	75.2982	-56.5658	13.927	-54.0257	99.5849	-37.2693	108.173	-33.1221	68.8165	-22.7694	32.4918	-27.9933	125.288
90941	-28.8215	60.2951	-34.5647	75.4647	-56.5184	14.3691	-53.7793	99.5335	-37.037	108.063	-32.9426	69.0211	-22.7259	32.7569	-27.8317	125.075
90942	-28.6885	60.5343	-34.3574	75.6305	-56.4695	14.8101	-53.5328	99.4829	-36.8045	107.954	-32.7628	69.225	-22.6821	33.0218	-27.6697	124.862
90943	-28.5553	60.773	-34.15	75.7956	-56.4192	15.25	-53.2862	99.4331	-36.5718	107.846	-32.5828	69.4282	-22.638	33.2866	-27.5073	124.65
90944	-28.4217	61.0112	-33.9423	75.96	-56.3674	15.6887	-53.0397	99.3841	-36.339	107.738	-32.4025	69.6307	-22.5936	33.5513	-27.3445	124.439
90945	-28.2878	61.2489	-33.7346	76.1237	-56.3143	16.1263	-52.7931	99.3359	-36.1061	107.632	-32.2221	69.8325	-22.5489	33.8158	-27.1813	124.228
90946	-28.1537	61.486	-33.5266	76.2868	-56.2597	16.5628	-52.5464	99.2884	-35.873	107.526	-32.0413	70.0336	-22.5038	34.0802	-27.0176	124.019
90947	-28.0192	61.7226	-33.3186	76.4492	-56.2037	16.998	-52.2997	99.2416	-35.6399	107.42	-31.8604	70.2341	-22.4585	34.3444	-26.8536	123.809
90948	-27.8844	61.9588	-33.1104	76.611	-56.1463	17.432	-52.053	99.1956	-35.4065	107.316	-31.6792	70.4338	-22.4128	34.6085	-26.6891	123.601
90949	-27.7493	62.1944	-32.902	76.7721	-56.0875	17.8647	-51.8063	99.1502	-35.1731	107.212	-31.4978	70.6329	-22.3669	34.8724	-26.5243	123.393
90950	-27.6139	62.4294	-32.6936	76.9326	-56.0274	18.2961	-51.5595	99.1056	-34.9395	107.109	-31.3161	70.8313	-22.3207	35.1362	-26.3591	123.186
90951	-27.4783	62.664	-32.4849	77.0925	-55.9658	18.7263	-51.3127	99.0617	-34.7057	107.007	-31.1343	71.0291	-22.2741	35.3998	-26.1934	122.98
90952	-27.3423	62.8981	-32.2762	77.2518	-55.9029	19.1551	-51.0659	99.0184	-34.4719	106.906	-30.9522	71.2262	-22.2273	35.6633	-26.0274	122.774
90953	-27.2061	63.1317	-32.0673	77.4104	-55.8386	19.5826	-50.819	98.9758	-34.2379	106.805	-30.77	71.4226	-22.1801	35.9266	-25.861	122.569
90954	-27.0696	63.3648	-31.8583	77.5685	-55.773	20.0087	-50.5721	98.9338	-34.0038	106.705	-30.5875	71.6185	-22.1327	36.1898	-25.6942	122.365
90955	-26.9328	63.5974	-31.6492	77.726	-55.706	20.4334	-50.3252	98.8924	-33.7696	106.606	-30.4048	71.8137	-22.0849	36.4528	-25.5271	122.161
90956	-26.7958	63.8296	-31.4399	77.8829	-55.6377	20.8568	-50.0782	98.8517	-33.5352	106.507	-30.2219	72.0083	-22.0369	36.7157	-25.3595	121.958
90957	-26.6584	64.0612	-31.2305	78.0392	-55.5681	21.2786	-49.8313	98.8116	-33.3008	106.409	-30.0388	72.2022	-21.9885	36.9784	-25.1916	121.756
90958	-26.5208	64.2924	-31.021	78.195	-55.4971	21.6991	-49.5843	98.7721	-33.0662	106.311	-29.8555	72.3956	-21.9399	37.2409	-25.0234	121.554
90959	-26.383	64.5231	-30.8114	78.3501	-55.4248	22.1181	-49.3372	98.7332	-32.8315	106.215	-29.672	72.5883	-21.891	37.5034	-24.8547	121.353
90960	-26.2448	64.7533	-30.6017	78.5048	-55.3513	22.5356	-49.0902	98.6949	-32.5967	106.119	-29.4883	72.7805	-21.8418	37.7656	-24.6857	121.153
90961	-26.1064	64.9831	-30.3918	78.6589	-55.2764	22.9516	-48.8431	98.6571	-32.3617	106.023	-29.3044	72.9721	-21.7922	38.0277	-24.5163	120.953
90962	-25.9678	65.2123	-30.1819	78.8124	-55.2002	23.3661	-48.596	98.6199	-32.1267	105.929	-29.1204	73.1631	-21.7425	38.2897	-24.3466	120.754
90963	-25.8289	65.4412	-29.9718	78.9655	-55.1228	23.7791	-48.3489	98.5833	-31.8915	105.835	-28.9362	73.3535	-21.6924	38.5515	-24.1766	120.555
90964	-25.6897	65.6695	-29.7616	79.118	-55.044	24.1905	-48.1017	98.5472	-31.6563	105.741	-28.7517	73.5433	-21.642	38.8131	-24.0062	120.358
90965	-25.5503	65.8974	-29.5513	79.27	-54.9641	24.6004	-47.8545	98.5116	-31.4209	105.648	-28.5671	73.7326	-21.5914	39.0746	-23.8354	120.16
90966	-25.4107	66.1249	-29.3409	79.4214	-54.8828	25.0087	-47.6073	98.4766	-31.1854	105.556	-28.3823	73.9214	-21.5404	39.3359	-23.6643	119.964
90967	-25.2707	66.3519	-29.1304	79.5724	-54.8004	25.4154	-47.3601	98.4421	-30.9498	105.464	-28.1974	74.1095	-21.4892	39.5971	-23.4929	119.768
90968	-25.1306	66.5785	-28.9198	79.7229	-54.7167	25.8206	-47.1129	98.4081	-30.7142	105.373	-28.0122	74.2972	-21.4377	39.8581	-23.3211	119.572
90969	-24.9902	66.8046	-28.7091	79.8729	-54.6317	26.2241	-46.8656	98.3745	-30.4784	105.282	-27.8269	74.4843	-21.3859	40.119	-23.149	119.377
90970	-24.8496	67.0303	-28.4983	80.0224	-54.5456	26.626	-46.6183	98.3415	-30.2425	105.193	-27.6415	74.6708	-21.3339	40.3797	-22.9765	119.183
90971	-24.7087	67.2555	-28.2874	80.1715	-54.4582	27.0263	-46.371	98.309	-30.0065	105.103	-27.4558	74.8569	-21.2815	40.6403	-22.8038	118.99
90972	-24.5677	67.4804	-28.0764	80.3201	-54.3697	27.4249	-46.1237	98.2769	-29.7704	105.014	-27.27	75.0424	-21.2289	40.9006	-22.6307	118.797
90973	-24.4263	67.7048	-27.8653	80.4682	-54.2799	27.8219	-45.8763	98.2453	-29.5342	104.926	-27.0841	75.2274	-21.176	41.1609	-22.4573	118.604
90974	-24.2848	67.9288	-27.6542	80.6158	-54.189	28.2172	-45.629	98.2142	-29.2979	104.838	-26.898	75.4119	-21.1229	41.421	-22.2836	118.412
90975	-24.143	68.1523	-27.4429	80.7631	-54.0969	28.6109	-45.3816	98.1835	-29.0615	104.751	-26.7117	75.5959	-21.0694	41.6809	-22.1095	118.221
90976	-24.001	68.3755	-27.2315	80.9098	-54.0036	29.0029	-45.1342	98.1532	-28.825	104.665	-26.5253	75.7794	-21.0157	41.9407	-21.9352	118.03
90977	-23.8588	68.5982	-27.0201	81.0562	-53.9092	29.3932	-44.8867	98.1234	-28.5885	104.579	-26.3387	75.9624	-20.9617	42.2003	-21.7605	117.84
90978	-23.7164	68.8205	-26.8086	81.2021	-53.8137	29.7818	-44.6393	98.0941	-28.3518	104.493	-26.152	76.145	-20.9075	42.4597	-21.5855	117.65
90979	-23.5738	69.0424	-26.597	81.3475	-53.717	30.1688	-44.3918	98.0651	-28.1151	104.408	-25.9651	76.327	-20.853	42.719	-21.4103	117.461
90980	-23.4309	69.2639	-26.3853	81.4926	-53.6192	30.554	-44.1443	98.0366	-27.8782	104.323	-25.7781	76.5086	-20.7982	42.9781	-21.2347	117.273
90981	-23.2879	69.485	-26.1735	81.6373	-53.5203	30.9375	-43.8968	98.0085	-27.6413	104.239	-25.5909	76.6897	-20.7432	43.2371	-21.0588	117.085
90982	-23.1446	69.7057	-25.9617	81.7815	-53.4202	31.3193	-43.6493	97.9808	-27.4042	104.156	-25.4036	76.8704	-20.6879	43.4959	-20.8826	116.897
90983	-23.0011	69.9261	-25.7497	81.9254	-53.3191	31.6994	-43.4018	97.9535	-27.1671	104.073	-25.2162	77.0506	-20.6323	43.7546	-20.7062	116.711
90984	-22.8575	70.146	-25.5377	82.0688	-53.2169	32.0778	-43.1542	97.9266	-26.9299	103.99	-25.0286	77.2303	-20.5765	44.0131	-20.5294	116.524
90985	-22.7136	70.3655	-25.3257	82.2119	-53.1136	32.4545	-42.9067	97.9001	-26.6927	103.908	-24.8409	77.4096	-20.5204	44.2714	-20.3524	116.338
90986	-22.5695	70.5847	-25.1135	82.3546	-53.0093	32.8294	-42.6591	97.874	-26.4553	103.827	-24.6531	77.5885	-20.464	44.5296	-20.1751	116.153
90987	-22.4253	70.8035	-24.9013	82.4969	-52.9038	33.2026	-42.4115	97.8482	-26.2178	103.746	-24.4651	77.767	-20.4074	44.7876	-19.9975	115.968
90988	-22.2809	71.0219	-24.689	82.6389	-52.7974	33.574	-42.1639	97.8228	-25.9803	103.665	-24.277	77.945	-20.3505	45.0455	-19.8196	115.784
90989	-22.1362	71.2399	-24.4767	82.7804	-52.6899	33.9438	-41.9162	97.7978	-25.7427	103.585	-24.0888	78.1226	-20.2934	45.3032	-19.6414	115.6
90990	-21.9914	71.4576	-24.2643	82.9217	-52.5813	34.3118	-41.6686	97.7732	-25.505	103.505	-23.9005	78.2998	-20.236	45.5607	-19.463	115.417
90991	-21.8464	71.6749	-24.0518	83.0625	-52.4718	34.678	-41.4209	97.7489	-25.2672	103.426	-23.7121	78.4765	-20.1784	45.8181	-19.2843	115.234
90992	-21.7012	71.8919	-23.8392	83.2031	-52.3612	35.0426	-41.1733	97.7249	-25.0294	103.347	-23.5235	78.6529	-20.1205	46.0753	-19.1053	115.052
90993	-21.5558	72.1085	-23.6266	83.3432	-52.2496	35.4054	-40.9256	97.7013	-24.7914	103.268	-23.3348	78.8288	-20.0624	46.3324	-18.926	114.87
90994	-21.4103	72.3247	-23.4139	83.4831	-52.1371	35.7664	-40.6779	97.6781	-24.5534	103.19	-23.146	79.0044	-20.004	46.5893	-18.7465	114.689
90995	-21.2646	72.5406	-23.2012	83.6226	-52.0235	36.1258	-40.4302	97.6552	-24.3153	103.113	-22.9571	79.1796	-19.9454	46.8461	-18.5667	114.508
90996	-21.1187	72.7561	-22.9884	83.7618	-51.909	36.4834	-40.1825	97.6326	-24.0772	103.036	-22.768	79.3544	-19.8865	47.1026	-18.3867	114.328
90997	-20.9726	72.9713	-22.7756	83.9006	-51.7935	36.8392	-39.9347	97.6104	-23.8389	102.959	-22.5789	79.5288	-19.8274	47.3591	-18.2064	114.148
90998	-20.8264	73.1861	-22.5627	84.0392	-51.6771	37.1934	-39.687	97.5884	-23.6006	102.883	-22.3897	79.7028	-19.7681	47.6153	-18.0259	113.968
90999	-20.68	73.4007	-22.3498	84.1774	-51.5597	37.5458	-39.4392	97.5668	-23.3623	102.807	-22.2003	79.8765	-19.7085	47.8715	-17.8451	113.789
91000	-20.5334	73.6148	-22.1367	84.3154	-51.4414	37.8965	-39.1914	97.5456	-23.1238	102.731	-22.0109	80.0498	-19.6487	48.1274	-17.6641	113.611
91001	-20.3867	73.8287	-21.9237	84.453	-51.3221	38.2454	-38.9436	97.5246	-22.8853	102.656	-21.8213	80.2227	-19.5886	48.3832	-17.4828	113.433
91002	-20.2398	74.0422	-21.7106	84.5904	-51.2019	38.5927	-38.6958	97.5039	-22.6467	102.582	-21.6317	80.3953	-19.5283	48.6389	-17.3012	113.255
91003	-20.0928	74.2554	-21.4974	84.7274	-51.0808	38.9382	-38.448	97.4835	-22.408	102.507	-21.442	80.5675	-19.4677	48.8943	-17.1195	113.078
91004	-19.9456	74.4683	-21.2842	84.8642	-50.9588	39.282	-38.2002	97.4635	-22.1693	102.433	-21.2521	80.7395	-19.4069	49.1497	-16.9375	112.901
91005	-19.7983	74.6809	-21.071	85.0007	-50.836	39.6241	-37.9523	97.4437	-21.9305	102.36	-21.0622	80.911	-19.3459	49.4048	-16.7552	112.725
91006	-19.6508	74.8931	-20.8577	85.1369	-50.7122	39.9645	-37.7045	97.4242	-21.6916	102.287	-20.8722	81.0822	-19.2847	49.6598	-16.5727	112.549
91007	-19.5032	75.105	-20.6444	85.2728	-50.5875	40.3032	-37.4566	97.4051	-21.4527	102.214	-20.6821	81.2531	-19.2232	49.9147	-16.39	112.374
91008	-19.3554	75.3167	-20.431	85.4085	-50.462	40.6402	-37.2088	97.3862	-21.2137	102.141	-20.4919	81.4237	-19.1615	50.1694	-16.207	112.199
91009	-19.2075	75.528	-20.2176	85.5439	-50.3357	40.9756	-36.9609	97.3675	-20.9746	102.069	-20.3016	81.594	-19.0996	50.4239	-16.0239	112.025
91010	-19.0594	75.739	-20.0041	85.6791	-50.2084	41.3092	-36.713	97.3492	-20.7355	101.998	-20.1112	81.7639	-19.0374	50.6783	-15.8405	111.85
91011	-18.9112	75.9497	-19.7906	85.814	-50.0804	41.6412	-36.4651	97.3311	-20.4963	101.926	-19.9208	81.9335	-18.975	50.9325	-15.6568	111.677
91012	-18.7629	76.1602	-19.5771	85.9487	-49.9515	41.9714	-36.2172	97.3133	-20.2571	101.855	-19.7303	82.1028	-18.9124	51.1865	-15.473	111.503
91013	-18.6144	76.3703	-19.3636	86.0831	-49.8217	42.3001	-35.9692	97.2958	-20.0177	101.785	-19.5397	82.2719	-18.8496	51.4405	-15.2889	111.331
91014	-18.4658	76.5802	-19.15	86.2173	-49.6912	42.627	-35.7213	97.2786	-19.7784	101.715	-19.349	82.4406	-18.7865	51.6942	-15.1046	111.158
91015	-18.3171	76.7898	-18.9363	86.3512	-49.5598	42.9524	-35.4734	97.2616	-19.5389	101.644	-19.1583	82.609	-18.7232	51.9478	-14.9201	110.986
91016	-18.1682	76.9991	-18.7227	86.485	-49.4277	43.276	-35.2254	97.2448	-19.2994	101.575	-18.9674	82.7772	-18.6597	52.2012	-14.7354	110.814
91017	-18.0192	77.2081	-18.509	86.6185	-49.2948	43.598	-34.9774	97.2284	-19.0599	101.506	-18.7765	82.945	-18.596	52.4545	-14.5505	110.643
91018	-17.8701	77.4168	-18.2953	86.7518	-49.161	43.9184	-34.7295	97.2121	-18.8202	101.437	-18.5856	83.1126	-18.5321	52.7076	-14.3653	110.472
91019	-17.7209	77.6253	-18.0815	86.8848	-49.0265	44.2372	-34.4815	97.1961	-18.5806	101.368	-18.3945	83.2799	-18.4679	52.9606	-14.18	110.302
91020	-17.5715	77.8335	-17.8677	87.0177	-48.8913	44.5543	-34.2335	97.1804	-18.3408	101.3	-18.2035	83.447	-18.4036	53.2134	-13.9945	110.131
91021	-17.4221	78.0414	-17.6539	87.1504	-48.7552	44.8699	-33.9855	97.1649	-18.101	101.232	-18.0123	83.6138	-18.339	53.4661	-13.8087	109.962
91022	-17.2725	78.2491	-17.4401	87.2828	-48.6185	45.1838	-33.7375	97.1497	-17.8612	101.164	-17.8211	83.7803	-18.2742	53.7186	-13.6228	109.792
91023	-17.1228	78.4565	-17.2263	87.4151	-48.481	45.4961	-33.4895	97.1347	-17.6213	101.097	-17.6298	83.9466	-18.2093	53.971	-13.4366	109.623
91024	-16.973	78.6637	-17.0124	87.5472	-48.3427	45.8069	-33.2415	97.1199	-17.3813	101.03	-17.4384	84.1126	-18.1441	54.2231	-13.2503	109.454
91025	-16.8231	78.8706	-16.7985	87.679	-48.2037	46.1161	-32.9934	97.1054	-17.1413	100.963	-17.247	84.2784	-18.0787	54.4752	-13.0637	109.286
91026	-16.6731	79.0773	-16.5846	87.8107	-48.064	46.4237	-32.7454	97.0911	-16.9012	100.897	-17.0556	84.4439	-18.013	54.7271	-12.877	109.118
91027	-16.523	79.2837	-16.3707	87.9423	-47.9236	46.7297	-32.4973	97.077	-16.6611	100.83	-16.8641	84.6092	-17.9473	54.9788	-12.6901	108.95
91028	-16.3727	79.4899	-16.1567	88.0736	-47.7825	47.0342	-32.2493	97.0632	-16.4209	100.764	-16.6725	84.7742	-17.8812	55.2304	-12.503	108.783
91029	-16.2224	79.6959	-15.9427	88.2048	-47.6407	47.3371	-32.0012	97.0495	-16.1807	100.699	-16.4809	84.9391	-17.815	55.4819	-12.3157	108.616
91030	-16.072	79.9016	-15.7287	88.3358	-47.4982	47.6385	-31.7532	97.0362	-15.9404	100.634	-16.2892	85.1037	-17.7486	55.7332	-12.1282	108.449
91031	-15.9215	80.1071	-15.5148	88.4666	-47.355	47.9384	-31.5051	97.023	-15.7001	100.569	-16.0975	85.2681	-17.682	55.9843	-11.9406	108.283
91032	-15.7709	80.3123	-15.3008	88.5973	-47.2112	48.2368	-31.257	97.01	-15.4597	100.504	-15.9058	85.4322	-17.6152	56.2353	-11.7527	108.117
91033	-15.6202	80.5174	-15.0867	88.7278	-47.0666	48.5336	-31.0089	96.9973	-15.2193	100.439	-15.714	85.5962	-17.5482	56.4861	-11.5647	107.951
91034	-15.4694	80.7222	-14.8727	88.8582	-46.9214	48.829	-30.7608	96.9847	-14.9788	100.375	-15.5222	85.7599	-17.481	56.7368	-11.3765	107.786
91035	-15.3185	80.9268	-14.6586	88.9885	-46.7756	49.1228	-30.5127	96.9724	-14.7383	100.311	-15.3303	85.9235	-17.4136	56.9873	-11.1881	107.621
91036	-15.1675	81.1311	-14.4446	89.1185	-46.6291	49.4152	-30.2646	96.9603	-14.4977	100.248	-15.1384	86.0868	-17.346	57.2377	-10.9996	107.456
91037	-15.0165	81.3353	-14.2305	89.2485	-46.482	49.7061	-30.0165	96.9484	-14.257	100.184	-14.9464	86.25	-17.2783	57.4879	-10.8109	107.292
91038	-14.8653	81.5392	-14.0165	89.3783	-46.3342	49.9955	-29.7684	96.9367	-14.0164	100.121	-14.7544	86.413	-17.2103	57.738	-10.622	107.128
91039	-14.7141	81.743	-13.8024	89.508	-46.1859	50.2835	-29.5202	96.9252	-13.7756	100.058	-14.5624	86.5757	-17.1422	57.988	-10.4329	106.964
91040	-14.5628	81.9465	-13.5883	89.6376	-46.0369	50.5701	-29.2721	96.9139	-13.5349	99.9957	-14.3704	86.7383	-17.0739	58.2378	-10.2437	106.801
91041	-14.4115	82.1499	-13.3743	89.767	-45.8873	50.8552	-29.0239	96.9028	-13.294	99.9334	-14.1783	86.9008	-17.0053	58.4874	-10.0544	106.637
91042	-14.26	82.353	-13.1602	89.8963	-45.7371	51.1389	-28.7758	96.8919	-13.0532	99.8713	-13.9862	87.063	-16.9367	58.7369	-9.86482	106.475
91043	-14.1085	82.556	-12.9461	90.0256	-45.5862	51.4211	-28.5277	96.8812	-12.8123	99.8094	-13.794	87.2251	-16.8678	58.9863	-9.67513	106.312
91044	-13.957	82.7588	-12.732	90.1547	-45.4348	51.702	-28.2795	96.8707	-12.5713	99.7478	-13.6018	87.387	-16.7987	59.2355	-9.48527	106.15
91045	-13.8053	82.9613	-12.518	90.2836	-45.2829	51.9815	-28.0313	96.8604	-12.3303	99.6865	-13.4096	87.5487	-16.7295	59.4846	-9.29526	105.987
91046	-13.6536	83.1637	-12.3039	90.4125	-45.1303	52.2595	-27.7831	96.8502	-12.0893	99.6253	-13.2174	87.7103	-16.6601	59.7335	-9.1051	105.826
91047	-13.5018	83.3659	-12.0898	90.5413	-44.9772	52.5362	-27.535	96.8403	-11.8482	99.5644	-13.0252	87.8717	-16.5905	59.9823	-8.91478	105.664
91048	-13.35	83.568	-11.8758	90.67	-44.8235	52.8116	-27.2868	96.8306	-11.607	99.5038	-12.8329	88.033	-16.5207	60.2309	-8.72431	105.503
91049	-13.1981	83.7698	-11.6617	90.7986	-44.6692	53.0856	-27.0386	96.821	-11.3659	99.4433	-12.6406	88.1941	-16.4508	60.4794	-8.53369	105.342
91050	-13.0461	83.9715	-11.4476	90.9272	-44.5144	53.3582	-26.7904	96.8116	-11.1246	99.3831	-12.4483	88.3551	-16.3807	60.7278	-8.34292	105.181
91051	-12.8941	84.173	-11.2336	91.0556	-44.359	53.6295	-26.5422	96.8024	-10.8834	99.3232	-12.256	88.516	-16.3104	60.976	-8.15201	105.021
91052	-12.742	84.3744	-11.0196	91.184	-44.2031	53.8995	-26.294	96.7934	-10.6421	99.2634	-12.0637	88.6767	-16.24	61.224	-7.96096	104.86
91053	-12.5899	84.5756	-10.8055	91.3122	-44.0467	54.1681	-26.0458	96.7845	-10.4007	99.2039	-11.8714	88.8373	-16.1694	61.472	-7.76976	104.7
91054	-12.4377	84.7766	-10.5915	91.4404	-43.8897	54.4355	-25.7976	96.7759	-10.1594	99.1445	-11.679	88.9978	-16.0986	61.7198	-7.57843	104.541
91055	-12.2855	84.9775	-10.3775	91.5686	-43.7323	54.7015	-25.5494	96.7674	-9.91793	99.0854	-11.4867	89.1581	-16.0277	61.9674	-7.38695	104.381
91056	-12.1332	85.1782	-10.1635	91.6967	-43.5743	54.9663	-25.3012	96.7591	-9.67647	99.0265	-11.2943	89.3183	-15.9566	62.2149	-7.19534	104.222
91057	-11.9809	85.3788	-9.94953	91.8247	-43.4158	55.2298	-25.0529	96.7509	-9.43497	98.9678	-11.1019	89.4784	-15.8853	62.4623	-7.00359	104.063
91058	-11.8286	85.5792	-9.73556	91.9526	-43.2567	55.492	-24.8047	96.743	-9.19342	98.9094	-10.9095	89.6384	-15.8139	62.7096	-6.81171	103.904
91059	-11.6762	85.7795	-9.52162	92.0805	-43.0972	55.753	-24.5565	96.7352	-8.95184	98.8511	-10.7172	89.7983	-15.7423	62.9567	-6.6197	103.746
91060	-11.5237	85.9796	-9.30769	92.2084	-42.9372	56.0127	-24.3082	96.7275	-8.71022	98.793	-10.5248	89.9581	-15.6706	63.2036	-6.42755	103.587
91061	-11.3713	86.1796	-9.09378	92.3362	-42.7767	56.2712	-24.06	96.7201	-8.46856	98.7351	-10.3324	90.1178	-15.5987	63.4504	-6.23528	103.429
91062	-11.2188	86.3795	-8.87989	92.464	-42.6158	56.5285	-23.8118	96.7128	-8.22687	98.6774	-10.14	90.2774	-15.5267	63.6972	-6.04288	103.271
91063	-11.0662	86.5792	-8.66602	92.5917	-42.4543	56.7845	-23.5635	96.7057	-7.98514	98.62	-9.94765	90.4369	-15.4544	63.9437	-5.85036	103.113
91064	-10.9136	86.7789	-8.45217	92.7194	-42.2924	57.0394	-23.3152	96.6987	-7.74337	98.5627	-9.75527	90.5963	-15.3821	64.1901	-5.65771	102.956
91065	-10.761	86.9783	-8.23834	92.847	-42.13	57.293	-23.067	96.6919	-7.50156	98.5055	-9.5629	90.7556	-15.3096	64.4364	-5.46494	102.799
91066	-10.6084	87.1777	-8.02454	92.9747	-41.9671	57.5455	-22.8187	96.6852	-7.25972	98.4486	-9.37054	90.9148	-15.237	64.6826	-5.27205	102.641
91067	-10.4557	87.3769	-7.81076	93.1023	-41.8038	57.7967	-22.5705	96.6788	-7.01784	98.3919	-9.17819	91.074	-15.1641	64.9286	-5.07904	102.484
91068	-10.3031	87.576	-7.59701	93.2298	-41.6401	58.0468	-22.3222	96.6725	-6.77593	98.3353	-8.98584	91.2331	-15.0912	65.1745	-4.88591	102.328
91069	-10.1504	87.775	-7.38328	93.3574	-41.4759	58.2958	-22.0739	96.6663	-6.53398	98.279	-8.79351	91.3921	-15.0181	65.4203	-4.69267	102.171
91070	-9.99763	87.974	-7.16958	93.485	-41.3113	58.5436	-21.8257	96.6603	-6.292	98.2228	-8.60119	91.5511	-14.9449	65.6659	-4.49932	102.015
91071	-9.84489	88.1727	-6.95591	93.6125	-41.1462	58.7903	-21.5774	96.6545	-6.04998	98.1667	-8.40889	91.71	-14.8715	65.9114	-4.30585	101.859
91072	-9.69212	88.3714	-6.74227	93.74	-40.9807	59.0358	-21.3291	96.6488	-5.80793	98.1109	-8.2166	91.8688	-14.798	66.1568	-4.11227	101.703
91073	-9.53935	88.57	-6.52867	93.8676	-40.8148	59.2802	-21.0808	96.6432	-5.56584	98.0552	-8.02433	92.0276	-14.7244	66.4021	-3.91858	101.547
91074	-9.38656	88.7685	-6.31509	93.9951	-40.6484	59.5235	-20.8325	96.6379	-5.32372	97.9997	-7.83207	92.1863	-14.6506	66.6472	-3.72478	101.391
91075	-9.23376	88.9669	-6.10155	94.1226	-40.4817	59.7657	-20.5843	96.6326	-5.08157	97.9444	-7.63984	92.3449	-14.5767	66.8922	-3.53088	101.236
91076	-9.08095	89.1652	-5.88804	94.2502	-40.3145	60.0068	-20.336	96.6275	-4.83939	97.8892	-7.44763	92.5036	-14.5026	67.1371	-3.33687	101.081
91077	-8.92813	89.3634	-5.67457	94.3777	-40.1469	60.2469	-20.0877	96.6226	-4.59717	97.8342	-7.25544	92.6622	-14.4284	67.3818	-3.14276	100.925
91078	-8.7753	89.5615	-5.46113	94.5053	-39.979	60.4858	-19.8394	96.6179	-4.35492	97.7793	-7.06328	92.8207	-14.3541	67.6265	-2.94855	100.77
91079	-8.62248	89.7595	-5.24773	94.6329	-39.8106	60.7238	-19.5911	96.6132	-4.11264	97.7247	-6.87115	92.9792	-14.2796	67.871	-2.75423	100.615
91080	-8.46965	89.9574	-5.03437	94.7605	-39.6418	60.9606	-19.3428	96.6087	-3.87033	97.6701	-6.67903	93.1377	-14.205	68.1153	-2.55982	100.461
91081	-8.31682	90.1553	-4.82104	94.8881	-39.4727	61.1964	-19.0945	96.6044	-3.62798	97.6158	-6.48696	93.2962	-14.1303	68.3596	-2.36531	100.306
91082	-8.16399	90.3531	-4.60776	95.0158	-39.3032	61.4312	-18.8462	96.6002	-3.38561	97.5615	-6.29491	93.4547	-14.0555	68.6037	-2.17071	100.152
91083	-8.01116	90.5508	-4.39452	95.1435	-39.1333	61.6649	-18.5979	96.5962	-3.1432	97.5074	-6.10289	93.6131	-13.9805	68.8478	-1.97601	99.9976
91084	-7.85834	90.7485	-4.18133	95.2712	-38.963	61.8977	-18.3496	96.5923	-2.90077	97.4535	-5.9109	93.7715	-13.9055	69.0917	-1.78122	99.8435
91085	-7.70552	90.9461	-3.96817	95.399	-38.7924	62.1294	-18.1012	96.5885	-2.6583	97.3997	-5.71896	93.9299	-13.8303	69.3354	-1.58634	99.6895
91086	-7.55272	91.1436	-3.75506	95.5268	-38.6213	62.3602	-17.8529	96.5849	-2.41581	97.3461	-5.52704	94.0883	-13.7549	69.5791	-1.39137	99.5356
91087	-7.39992	91.341	-3.542	95.6546	-38.45	62.5899	-17.6046	96.5815	-2.17328	97.2926	-5.33517	94.2466	-13.6795	69.8226	-1.19631	99.3819
91088	-7.24714	91.5384	-3.32898	95.7825	-38.2783	62.8187	-17.3563	96.5781	-1.93073	97.2392	-5.14333	94.405	-13.6039	70.0661	-1.00116	99.2282
91089	-7.09437	91.7358	-3.11602	95.9105	-38.1062	63.0465	-17.108	96.575	-1.68815	97.186	-4.95154	94.5634	-13.5283	70.3094	-0.805931	99.0747
91090	-6.94162	91.9331	-2.9031	96.0385	-37.9338	63.2733	-16.8596	96.5719	-1.44554	97.1329	-4.75978	94.7218	-13.4525	70.5526	-0.610616	98.9213
91091	-6.78889	92.1303	-2.69023	96.1666	-37.761	63.4992	-16.6113	96.569	-1.2029	97.08	-4.56807	94.8802	-13.3766	70.7957	-0.415218	98.768
91092	-6.63617	92.3275	-2.47741	96.2947	-37.5879	63.7242	-16.363	96.5662	-0.960229	97.0272	-4.37641	95.0386	-13.3005	71.0386	-0.21974	98.6149
91093	-6.48348	92.5246	-2.26465	96.4229	-37.4145	63.9482	-16.1147	96.5636	-0.717535	96.9745	-4.18479	95.197	-13.2244	71.2815	-0.0241824	98.4618
91094	-6.3308	92.7218	-2.05194	96.5512	-37.2407	64.1713	-15.8664	96.5611	-0.474813	96.9219	-3.99322	95.3555	-13.1482	71.5242	0.171453	98.3088
91095	-6.17816	92.9188	-1.83928	96.6796	-37.0666	64.3935	-15.618	96.5588	-0.232063	96.8695	-3.8017	95.5139	-13.0718	71.7669	0.367165	98.1559
91096	-6.02554	93.1159	-1.62668	96.808	-36.8922	64.6147	-15.3697	96.5566	0.0107129	96.8172	-3.61023	95.6724	-12.9954	72.0094	0.562952	98.0031
91097	-5.87295	93.3129	-1.41413	96.9365	-36.7175	64.8351	-15.1214	96.5545	0.253516	96.765	-3.41882	95.831	-12.9188	72.2518	0.758813	97.8504
91098	-5.72039	93.5098	-1.20165	97.0651	-36.5424	65.0546	-14.873	96.5525	0.496345	96.713	-3.22746	95.9895	-12.8422	72.4941	0.954745	97.6978
91099	-5.56786	93.7068	-0.989221	97.1937	-36.3671	65.2732	-14.6247	96.5507	0.7392	96.661	-3.03615	96.1481	-12.7654	72.7363	1.15075	97.5453
91100	-5.41537	93.9037	-0.776853	97.3225	-36.1914	65.4909	-14.3764	96.5491	0.982081	96.6092	-2.8449	96.3068	-12.6886	72.9784	1.34682	97.3928
91101	-5.26291	94.1006	-0.564547	97.4514	-36.0154	65.7078	-14.128	96.5475	1.22499	96.5575	-2.65371	96.4655	-12.6116	73.2204	1.54296	97.2405
91102	-5.11048	94.2975	-0.352303	97.5803	-35.8392	65.9238	-13.8797	96.5461	1.46792	96.5059	-2.46258	96.6242	-12.5345	73.4623	1.73917	97.0882
91103	-4.9581	94.4943	-0.140123	97.7094	-35.6626	66.1389	-13.6313	96.5448	1.71088	96.4544	-2.27151	96.783	-12.4574	73.704	1.93544	96.9359
91104	-4.80576	94.6912	0.071993	97.8386	-35.4858	66.3533	-13.383	96.5437	1.95386	96.403	-2.0805	96.9418	-12.3801	73.9457	2.13178	96.7837
91105	-4.65346	94.888	0.284043	97.9678	-35.3086	66.5667	-13.1347	96.5427	2.19686	96.3517	-1.88956	97.1007	-12.3028	74.1873	2.32817	96.6316
91106	-4.50121	95.0849	0.496027	98.0972	-35.1312	66.7794	-12.8863	96.5418	2.43989	96.3006	-1.69868	97.2597	-12.2254	74.4287	2.52463	96.4796
91107	-4.349	95.2817	0.707942	98.2267	-34.9535	66.9913	-12.638	96.5411	2.68295	96.2495	-1.50787	97.4187	-12.1478	74.6701	2.72115	96.3276
91108	-4.19684	95.4785	0.919788	98.3564	-34.7755	67.2023	-12.3897	96.5405	2.92603	96.1986	-1.31713	97.5778	-12.0702	74.9114	2.91772	96.1756
91109	-4.04473	95.6753	1.13156	98.4861	-34.5972	67.4125	-12.1413	96.54	3.16913	96.1477	-1.12646	97.7369	-11.9925	75.1525	3.11436	96.0237
91110	-3.89268	95.8722	1.34327	98.616	-34.4187	67.622	-11.893	96.5396	3.41226	96.097	-0.935858	97.8962	-11.9147	75.3936	3.31105	95.8718
91111	-3.74067	96.069	1.5549	98.746	-34.2399	67.8307	-11.6446	96.5394	3.6554	96.0463	-0.745332	98.0555	-11.8369	75.6346	3.50779	95.72
91112	-3.58873	96.2658	1.76646	98.8761	-34.0608	68.0386	-11.3963	96.5393	3.89858	95.9958	-0.554881	98.2149	-11.7589	75.8755	3.70458	95.5682
91113	-3.43683	96.4627	1.97794	99.0064	-33.8815	68.2457	-11.1479	96.5393	4.14177	95.9453	-0.364506	98.3744	-11.6809	76.1162	3.90142	95.4165
91114	-3.285	96.6596	2.18935	99.1368	-33.7019	68.4521	-10.8996	96.5395	4.38499	95.8949	-0.174209	98.534	-11.6028	76.3569	4.09832	95.2647
91115	-3.13323	96.8564	2.40068	99.2674	-33.522	68.6577	-10.6513	96.5398	4.62822	95.8447	0.0160079	98.6937	-11.5246	76.5975	4.29526	95.113
91116	-2.98152	97.0533	2.61193	99.3981	-33.3419	68.8625	-10.4029	96.5402	4.87148	95.7945	0.206144	98.8534	-11.4463	76.838	4.49225	94.9614
91117	-2.82988	97.2503	2.8231	99.5289	-33.1616	69.0667	-10.1546	96.5407	5.11477	95.7444	0.396199	99.0133	-11.3679	77.0784	4.68928	94.8097
91118	-2.6783	97.4472	3.0342	99.6599	-32.981	69.2701	-9.90624	96.5414	5.35807	95.6944	0.586169	99.1733	-11.2895	77.3187	4.88636	94.6581
91119	-2.52679	97.6442	3.24521	99.7911	-32.8002	69.4728	-9.6579	96.5422	5.6014	95.6444	0.776053	99.3333	-11.211	77.5589	5.08348	94.5064
91120	-2.37535	97.8412	3.45613	99.9224	-32.6191	69.6748	-9.40956	96.5431	5.84474	95.5946	0.965851	99.4935	-11.1324	77.7991	5.28064	94.3548
91121	-2.22398	98.0383	3.66697	100.054	-32.4378	69.876	-9.16122	96.5442	6.08811	95.5448	1.15556	99.6539	-11.0538	78.0391	5.47785	94.2031
91122	-2.07268	98.2354	3.87773	100.186	-32.2563	70.0766	-8.91288	96.5453	6.3315	95.4951	1.34518	99.8143	-10.9751	78.2791	5.67509	94.0515
91123	-1.92146	98.4325	4.0884	100.317	-32.0745	70.2765	-8.66454	96.5466	6.57491	95.4455	1.53471	99.9748	-10.8963	78.5189	5.87236	93.8999
91124	-1.77032	98.6296	4.29898	100.45	-31.8925	70.4757	-8.4162	96.5481	6.81833	95.396	1.72414	100.135	-10.8174	78.7587	6.06968	93.7483
91125	-1.61925	98.8269	4.50947	100.582	-31.7103	70.6742	-8.16787	96.5496	7.06178	95.3465	1.91348	100.296	-10.7385	78.9984	6.26702	93.5966
91126	-1.46827	99.0241	4.71987	100.714	-31.5279	70.872	-7.91953	96.5513	7.30525	95.2971	2.10272	100.457	-10.6595	79.238	6.4644	93.445
91127	-1.31737	99.2214	4.93018	100.847	-31.3452	71.0692	-7.67119	96.5531	7.54874	95.2478	2.29187	100.618	-10.5805	79.4775	6.66181	93.2933
91128	-1.16655	99.4188	5.1404	100.979	-31.1624	71.2657	-7.42286	96.555	7.79224	95.1985	2.48091	100.779	-10.5014	79.717	6.85926	93.1416
91129	-1.01582	99.6162	5.35052	101.112	-30.9793	71.4616	-7.17452	96.5571	8.03577	95.1493	2.66986	100.941	-10.4222	79.9564	7.05673	92.9899
91130	-0.865174	99.8137	5.56055	101.245	-30.796	71.6569	-6.92619	96.5592	8.27932	95.1002	2.8587	101.102	-10.343	80.1956	7.25423	92.8381
91131	-0.714619	100.011	5.77048	101.379	-30.6125	71.8514	-6.67785	96.5615	8.52288	95.0512	3.04744	101.264	-10.2637	80.4348	7.45175	92.6863
91132	-0.564156	100.209	5.98031	101.512	-30.4288	72.0454	-6.42952	96.564	8.76646	95.0022	3.23607	101.426	-10.1844	80.674	7.6493	92.5345
91133	-0.413786	100.406	6.19004	101.646	-30.2449	72.2388	-6.18119	96.5665	9.01006	94.9532	3.4246	101.588	-10.105	80.913	7.84687	92.3826
91134	-0.263512	100.604	6.39968	101.78	-30.0608	72.4315	-5.93286	96.5692	9.25368	94.9044	3.61301	101.75	-10.0256	81.152	8.04446	92.2307
91135	-0.113334	100.802	6.6092	101.914	-29.8765	72.6236	-5.68453	96.572	9.49732	94.8555	3.80132	101.912	-9.94608	81.3909	8.24208	92.0788
91136	0.0367457	101	6.81863	102.049	-29.692	72.8152	-5.4362	96.5749	9.74097	94.8068	3.98951	102.075	-9.86653	81.6297	8.43971	91.9268
91137	0.186724	101.198	7.02795	102.183	-29.5073	73.0061	-5.18788	96.578	9.98464	94.7581	4.17759	102.237	-9.78694	81.8684	8.63736	91.7747
91138	0.336601	101.396	7.23717	102.318	-29.3225	73.1965	-4.93955	96.5811	10.2283	94.7094	4.36555	102.4	-9.7073	82.1071	8.83503	91.6226
91139	0.486373	101.594	7.44627	102.453	-29.1374	73.3862	-4.69123	96.5844	10.472	94.6608	4.5534	102.563	-9.62762	82.3457	9.03271	91.4704
91140	0.636039	101.792	7.65527	102.589	-28.9522	73.5754	-4.44291	96.5878	10.7158	94.6123	4.74112	102.726	-9.54789	82.5842	9.23041	91.3182
91141	0.785598	101.99	7.86416	102.724	-28.7668	73.764	-4.19459	96.5914	10.9595	94.5637	4.92873	102.889	-9.46812	82.8227	9.42812	91.1658
91142	0.935047	102.189	8.07294	102.86	-28.5812	73.9521	-3.94627	96.595	11.2033	94.5153	5.11621	103.053	-9.38831	83.0611	9.62583	91.0135
91143	1.08438	102.387	8.28161	102.996	-28.3954	74.1396	-3.69795	96.5988	11.447	94.4669	5.30357	103.216	-9.30846	83.2994	9.82356	90.861
91144	1.23361	102.586	8.49016	103.132	-28.2095	74.3266	-3.44964	96.6028	11.6908	94.4185	5.49081	103.38	-9.22856	83.5377	10.0213	90.7084
91145	1.38272	102.784	8.69859	103.269	-28.0234	74.513	-3.20132	96.6068	11.9346	94.3701	5.67792	103.544	-9.14864	83.7759	10.219	90.5558
91146	1.53171	102.983	8.90691	103.406	-27.8371	74.6989	-2.95301	96.611	12.1784	94.3218	5.8649	103.709	-9.06867	84.014	10.4168	90.4031
91147	1.68058	103.182	9.11511	103.543	-27.6507	74.8842	-2.7047	96.6152	12.4223	94.2736	6.05175	103.873	-8.98867	84.252	10.6145	90.2503
91148	1.82933	103.381	9.32319	103.68	-27.4641	75.069	-2.4564	96.6196	12.6661	94.2254	6.23846	104.038	-8.90864	84.49	10.8123	90.0974
91149	1.97796	103.58	9.53115	103.818	-27.2773	75.2533	-2.20809	96.6242	12.91	94.1772	6.42504	104.203	-8.82857	84.7279	11.01	89.9444
91150	2.12647	103.779	9.73899	103.956	-27.0904	75.4371	-1.95979	96.6288	13.1539	94.129	6.61149	104.368	-8.74847	84.9658	11.2078	89.7913
91151	2.27485	103.979	9.9467	104.094	-26.9033	75.6204	-1.71149	96.6336	13.3978	94.0809	6.7978	104.533	-8.66835	85.2036	11.4055	89.6381
91152	2.4231	104.178	10.1543	104.233	-26.7161	75.8032	-1.46319	96.6385	13.6417	94.0328	6.98397	104.699	-8.5882	85.4413	11.6033	89.4847
91153	2.57122	104.378	10.3618	104.371	-26.5287	75.9855	-1.21489	96.6436	13.8856	93.9847	7.17	104.865	-8.50802	85.679	11.801	89.3313
91154	2.71921	104.577	10.5691	104.51	-26.3412	76.1673	-0.966599	96.6487	14.1296	93.9367	7.35589	105.031	-8.42781	85.9167	11.9988	89.1777
91155	2.86706	104.777	10.7763	104.65	-26.1535	76.3487	-0.718308	96.654	14.3735	93.8887	7.54163	105.197	-8.34758	86.1542	12.1965	89.024
91156	3.01478	104.977	10.9833	104.789	-25.9657	76.5295	-0.47002	96.6594	14.6175	93.8407	7.72722	105.364	-8.26733	86.3917	12.3942	88.8702
91157	3.16236	105.177	11.1903	104.929	-25.7778	76.7099	-0.221734	96.665	14.8615	93.7927	7.91267	105.53	-8.18706	86.6292	12.5919	88.7163
91158	3.3098	105.377	11.3971	105.069	-25.5897	76.8898	0.0265491	96.6706	15.1055	93.7447	8.09797	105.697	-8.10677	86.8666	12.7896	88.5622
91159	3.4571	105.578	11.6037	105.21	-25.4014	77.0692	0.274829	96.6764	15.3495	93.6968	8.28312	105.865	-8.02646	87.1039	12.9873	88.408
91160	3.60426	105.778	11.8103	105.351	-25.2131	77.2482	0.523107	96.6823	15.5935	93.6489	8.46811	106.032	-7.94613	87.3413	13.185	88.2536
91161	3.75128	105.979	12.0167	105.492	-25.0246	77.4268	0.771382	96.6883	15.8375	93.601	8.65295	106.2	-7.86579	87.5785	13.3826	88.0991
91162	3.89814	106.179	12.2229	105.633	-24.836	77.6049	1.01965	96.6945	16.0816	93.5531	8.83763	106.368	-7.78544	87.8157	13.5803	87.9444
91163	4.04486	106.38	12.429	105.775	-24.6472	77.7826	1.26792	96.7008	16.3256	93.5052	9.02216	106.536	-7.70507	88.0528	13.7779	87.7896
91164	4.19142	106.581	12.635	105.918	-24.4583	77.9599	1.51619	96.7072	16.5697	93.4573	9.20652	106.705	-7.62469	88.2899	13.9755	87.6346
91165	4.33784	106.782	12.8408	106.06	-24.2693	78.1367	1.76445	96.7138	16.8138	93.4094	9.39072	106.873	-7.5443	88.527	14.1731	87.4795
91166	4.48409	106.984	13.0465	106.203	-24.0802	78.3131	2.01271	96.7204	17.0579	93.3616	9.57476	107.043	-7.4639	88.764	14.3706	87.3242
91167	4.6302	107.185	13.252	106.346	-23.8909	78.4891	2.26096	96.7272	17.302	93.3137	9.75863	107.212	-7.3835	89.0009	14.5681	87.1687
91168	4.77614	107.387	13.4574	106.49	-23.7015	78.6646	2.50922	96.7342	17.5461	93.2658	9.94233	107.382	-7.30309	89.2378	14.7657	87.0131
91169	4.92192	107.589	13.6626	106.633	-23.512	78.8398	2.75747	96.7412	17.7903	93.218	10.1259	107.551	-7.22267	89.4747	14.9631	86.8572
91170	5.06754	107.79	13.8676	106.778	-23.3224	79.0146	3.00571	96.7484	18.0344	93.1701	10.3092	107.722	-7.14225	89.7115	15.1606	86.7012
91171	5.213	107.993	14.0726	106.922	-23.1327	79.189	3.25395	96.7557	18.2786	93.1223	10.4924	107.892	-7.06183	89.9483	15.358	86.545
91172	5.35829	108.195	14.2773	107.067	-22.9429	79.3629	3.50219	96.7632	18.5227	93.0744	10.6754	108.063	-6.98141	90.1851	15.5554	86.3886
91173	5.50341	108.397	14.4819	107.213	-22.753	79.5366	3.75043	96.7708	18.7669	93.0265	10.8582	108.234	-6.90099	90.4218	15.7527	86.232
91174	5.64836	108.6	14.6863	107.358	-22.563	79.7098	3.99866	96.7785	19.0111	92.9786	11.0409	108.405	-6.82058	90.6584	15.95	86.0752
91175	5.79314	108.803	14.8906	107.505	-22.3728	79.8827	4.24688	96.7863	19.2553	92.9308	11.2234	108.577	-6.74017	90.895	16.1473	85.9182
91176	5.93775	109.006	15.0947	107.651	-22.1826	80.0552	4.49511	96.7943	19.4995	92.8829	11.4057	108.749	-6.65976	91.1316	16.3445	85.761
91177	6.08218	109.209	15.2987	107.798	-21.9922	80.2273	4.74332	96.8024	19.7437	92.8349	11.5878	108.921	-6.57936	91.3682	16.5417	85.6036
91178	6.22643	109.412	15.5024	107.945	-21.8018	80.3991	4.99154	96.8106	19.988	92.787	11.7697	109.094	-6.49896	91.6047	16.7388	85.446
91179	6.3705	109.616	15.706	108.093	-21.6112	80.5705	5.23975	96.819	20.2322	92.739	11.9514	109.267	-6.41858	91.8412	16.9359	85.2881
91180	6.51439	109.82	15.9095	108.241	-21.4206	80.7416	5.48796	96.8275	20.4765	92.6911	12.1329	109.44	-6.33821	92.0776	17.133	85.13
91181	6.6581	110.023	16.1127	108.389	-21.2299	80.9123	5.73616	96.8361	20.7207	92.6431	12.3143	109.614	-6.25784	92.314	17.33	84.9717
91182	6.80162	110.228	16.3158	108.538	-21.0391	81.0827	5.98436	96.8448	20.965	92.5951	12.4954	109.788	-6.1775	92.5504	17.527	84.8131
91183	6.94495	110.432	16.5187	108.688	-20.8482	81.2528	6.23255	96.8538	21.2093	92.547	12.6764	109.962	-6.09716	92.7868	17.7239	84.6543
91184	7.08809	110.636	16.7214	108.837	-20.6572	81.4225	6.48074	96.8628	21.4536	92.499	12.8571	110.137	-6.01685	93.0231	17.9208	84.4953
91185	7.23104	110.841	16.924	108.987	-20.4661	81.5919	6.72892	96.8719	21.6979	92.4509	13.0377	110.312	-5.93655	93.2594	18.1176	84.336
91186	7.3738	111.046	17.1263	109.138	-20.275	81.761	6.9771	96.8812	21.9422	92.4027	13.218	110.487	-5.85627	93.4956	18.3144	84.1765
91187	7.51636	111.251	17.3285	109.289	-20.0837	81.9298	7.22528	96.8907	22.1865	92.3546	13.3981	110.663	-5.776	93.7319	18.5111	84.0166
91188	7.65872	111.456	17.5305	109.441	-19.8924	82.0983	7.47345	96.9003	22.4308	92.3064	13.5781	110.839	-5.69576	93.9681	18.7077	83.8566
91189	7.80088	111.662	17.7323	109.592	-19.701	82.2665	7.72161	96.91	22.6752	92.2582	13.7578	111.016	-5.61555	94.2043	18.9043	83.6963
91190	7.94284	111.868	17.934	109.745	-19.5095	82.4343	7.96977	96.9198	22.9195	92.2099	13.9373	111.192	-5.53536	94.4404	19.1008	83.5357
91191	8.0846	112.073	18.1354	109.898	-19.318	82.6019	8.21793	96.9298	23.1639	92.1616	14.1166	111.369	-5.45519	94.6766	19.2973	83.3748
91192	8.22615	112.28	18.3366	110.051	-19.1264	82.7692	8.46608	96.94	23.4082	92.1132	14.2957	111.547	-5.37505	94.9127	19.4937	83.2136
91193	8.36749	112.486	18.5376	110.205	-18.9347	82.9362	8.71422	96.9502	23.6526	92.0649	14.4745	111.725	-5.29494	95.1488	19.69	83.0521
91194	8.50862	112.693	18.7385	110.359	-18.7429	83.1029	8.96236	96.9607	23.8969	92.0164	14.6532	111.903	-5.21486	95.3849	19.8863	82.8904
91195	8.64954	112.9	18.9391	110.513	-18.5511	83.2694	9.2105	96.9712	24.1413	91.9679	14.8316	112.082	-5.13481	95.6209	20.0825	82.7284
91196	8.79024	113.106	19.1395	110.669	-18.3592	83.4356	9.45862	96.9819	24.3857	91.9194	15.0098	112.261	-5.05479	95.857	20.2786	82.566
91197	8.93073	113.314	19.3398	110.824	-18.1672	83.6015	9.70675	96.9927	24.6301	91.8708	15.1877	112.44	-4.9748	96.093	20.4746	82.4034
91198	9.071	113.521	19.5398	110.98	-17.9752	83.7671	9.95486	97.0037	24.8745	91.8222	15.3654	112.62	-4.89485	96.329	20.6706	82.2404
91199	9.21105	113.729	19.7396	111.137	-17.7831	83.9325	10.203	97.0148	25.1189	91.7735	15.5429	112.8	-4.81494	96.565	20.8665	82.0772
91200	9.35088	113.937	19.9392	111.294	-17.591	84.0977	10.4511	97.0261	25.3633	91.7247	15.7202	112.981	-4.73506	96.801	21.0623	81.9136
91201	9.49048	114.145	20.1386	111.452	-17.3988	84.2626	10.6992	97.0375	25.6077	91.6759	15.8972	113.162	-4.65523	97.0369	21.2581	81.7497
91202	9.62986	114.354	20.3378	111.61	-17.2066	84.4272	10.9473	97.0491	25.8522	91.627	16.074	113.344	-4.57543	97.2729	21.4537	81.5854
91203	9.769	114.562	20.5367	111.769	-17.0143	84.5916	11.1954	97.0608	26.0966	91.578	16.2506	113.525	-4.49568	97.5088	21.6493	81.4208
91204	9.90792	114.771	20.7355	111.928	-16.8219	84.7558	11.4434	97.0727	26.341	91.529	16.4269	113.708	-4.41596	97.7447	21.8448	81.2559
91205	10.0466	114.981	20.934	112.087	-16.6295	84.9197	11.6915	97.0847	26.5855	91.4799	16.6029	113.89	-4.3363	97.9806	22.0402	81.0906
91206	10.1851	115.19	21.1323	112.248	-16.437	85.0835	11.9396	97.0969	26.8299	91.4308	16.7787	114.073	-4.25668	98.2165	22.2355	80.925
91207	10.3233	115.4	21.3303	112.408	-16.2445	85.247	12.1876	97.1092	27.0744	91.3816	16.9543	114.257	-4.1771	98.4524	22.4308	80.7591
91208	10.4612	115.61	21.5282	112.57	-16.052	85.4103	12.4357	97.1216	27.3188	91.3323	17.1296	114.441	-4.09758	98.6883	22.6259	80.5927
91209	10.599	115.82	21.7258	112.731	-15.8594	85.5733	12.6838	97.1342	27.5633	91.2829	17.3047	114.626	-4.0181	98.9242	22.8209	80.426
91210	10.7364	116.03	21.9232	112.894	-15.6668	85.7362	12.9318	97.147	27.8078	91.2334	17.4795	114.81	-3.93868	99.1601	23.0159	80.259
91211	10.8737	116.241	22.1203	113.057	-15.4741	85.8988	13.1798	97.1599	28.0523	91.1838	17.654	114.996	-3.85931	99.3959	23.2107	80.0915
91212	11.0107	116.452	22.3172	113.22	-15.2814	86.0613	13.4279	97.173	28.2967	91.1342	17.8283	115.182	-3.77999	99.6318	23.4055	79.9237
91213	11.1474	116.663	22.5138	113.385	-15.0886	86.2235	13.6759	97.1862	28.5412	91.0845	18.0023	115.368	-3.70073	99.8677	23.6001	79.7555
91214	11.2839	116.875	22.7103	113.549	-14.8958	86.3856	13.9239	97.1996	28.7857	91.0347	18.176	115.555	-3.62152	100.103	23.7947	79.5869
91215	11.4201	117.087	22.9064	113.714	-14.703	86.5474	14.1719	97.2132	29.0302	90.9848	18.3495	115.742	-3.54237	100.339	23.9891	79.4179
91216	11.5561	117.299	23.1023	113.88	-14.5102	86.7091	14.4199	97.2269	29.2747	90.9347	18.5227	115.929	-3.46328	100.575	24.1835	79.2485
91217	11.6918	117.511	23.298	114.047	-14.3173	86.8706	14.6679	97.2407	29.5192	90.8846	18.6956	116.118	-3.38425	100.811	24.3777	79.0786
91218	11.8273	117.724	23.4934	114.214	-14.1244	87.032	14.9159	97.2548	29.7637	90.8345	18.8682	116.306	-3.30529	101.047	24.5718	78.9084
91219	11.9625	117.937	23.6886	114.381	-13.9314	87.1931	15.1639	97.269	30.0082	90.7841	19.0406	116.495	-3.22638	101.283	24.7658	78.7378
91220	12.0974	118.15	23.8835	114.55	-13.7384	87.3541	15.4118	97.2833	30.2527	90.7337	19.2127	116.685	-3.14754	101.519	24.9596	78.5667
91221	12.232	118.363	24.0781	114.718	-13.5455	87.5149	15.6598	97.2978	30.4972	90.6832	19.3845	116.875	-3.06877	101.755	25.1534	78.3952
91222	12.3664	118.577	24.2725	114.888	-13.3524	87.6756	15.9078	97.3125	30.7417	90.6326	19.5559	117.065	-2.99006	101.99	25.3471	78.2232
91223	12.5006	118.791	24.4666	115.058	-13.1594	87.8361	16.1557	97.3274	30.9862	90.5818	19.7272	117.256	-2.91143	102.226	25.5406	78.0508
91224	12.6344	119.006	24.6604	115.229	-12.9663	87.9965	16.4036	97.3424	31.2307	90.531	19.8981	117.448	-2.83286	102.462	25.734	77.878
91225	12.768	119.22	24.854	115.4	-12.7733	88.1567	16.6516	97.3576	31.4753	90.48	20.0687	117.64	-2.75436	102.698	25.9273	77.7047
91226	12.9012	119.435	25.0473	115.572	-12.5801	88.3167	16.8995	97.3729	31.7198	90.4289	20.239	117.832	-2.67594	102.934	26.1204	77.5309
91227	13.0343	119.65	25.2403	115.745	-12.387	88.4767	17.1474	97.3885	31.9643	90.3777	20.4091	118.025	-2.59759	103.17	26.3134	77.3567
91228	13.167	119.866	25.4331	115.918	-12.1939	88.6365	17.3953	97.4042	32.2088	90.3263	20.5788	118.219	-2.51932	103.406	26.5063	77.182
91229	13.2994	120.082	25.6255	116.092	-12.0008	88.7961	17.6432	97.42	32.4534	90.2748	20.7482	118.413	-2.44112	103.642	26.699	77.0068
91230	13.4315	120.298	25.8177	116.267	-11.8076	88.9557	17.8911	97.4361	32.6979	90.2232	20.9173	118.608	-2.363	103.878	26.8916	76.8312
91231	13.5634	120.514	26.0095	116.442	-11.6145	89.115	18.139	97.4523	32.9424	90.1714	21.0861	118.803	-2.28496	104.114	27.0841	76.655
91232	13.695	120.731	26.2011	116.618	-11.4213	89.2743	18.3868	97.4687	33.1869	90.1195	21.2545	118.999	-2.207	104.35	27.2765	76.4784
91233	13.8262	120.948	26.3924	116.795	-11.2281	89.4335	18.6347	97.4853	33.4315	90.0675	21.4227	119.195	-2.12912	104.586	27.4686	76.3012
91234	13.9572	121.166	26.5834	116.972	-11.0349	89.5926	18.8825	97.5021	33.676	90.0153	21.5905	119.392	-2.05132	104.822	27.6607	76.1236
91235	14.0879	121.383	26.7741	117.15	-10.8417	89.7515	19.1304	97.519	33.9205	89.963	21.758	119.589	-1.97361	105.058	27.8526	75.9454
91236	14.2182	121.601	26.9645	117.329	-10.6486	89.9103	19.3782	97.5362	34.165	89.9105	21.9252	119.787	-1.89598	105.294	28.0443	75.7667
91237	14.3483	121.82	27.1546	117.509	-10.4554	90.0691	19.626	97.5535	34.4096	89.8578	22.0921	119.985	-1.81844	105.53	28.2359	75.5875
91238	14.4781	122.038	27.3443	117.689	-10.2622	90.2277	19.8738	97.571	34.6541	89.805	22.2586	120.184	-1.74099	105.766	28.4274	75.4077
91239	14.6075	122.257	27.5338	117.87	-10.069	90.3863	20.1216	97.5887	34.8986	89.7521	22.4248	120.384	-1.66363	106.002	28.6186	75.2274
91240	14.7367	122.477	27.723	118.052	-9.87581	90.5447	20.3694	97.6065	35.1431	89.6989	22.5906	120.584	-1.58636	106.238	28.8098	75.0466
91241	14.8655	122.696	27.9118	118.234	-9.68264	90.7031	20.6172	97.6246	35.3877	89.6456	22.7561	120.785	-1.50919	106.474	29.0007	74.8652
91242	14.994	122.916	28.1003	118.417	-9.48947	90.8614	20.865	97.6429	35.6322	89.5922	22.9213	120.986	-1.4321	106.711	29.1915	74.6832
91243	15.1222	123.136	28.2885	118.601	-9.2963	91.0196	21.1127	97.6613	35.8767	89.5385	23.0861	121.188	-1.35512	106.947	29.3822	74.5007
91244	15.25	123.357	28.4763	118.786	-9.10315	91.1777	21.3605	97.68	36.1212	89.4847	23.2505	121.39	-1.27822	107.183	29.5726	74.3176
91245	15.3776	123.578	28.6638	118.971	-8.91001	91.3358	21.6082	97.6988	36.3657	89.4307	23.4146	121.593	-1.20143	107.419	29.7629	74.1339
91246	15.5048	123.799	28.851	119.157	-8.71688	91.4938	21.856	97.7179	36.6103	89.3765	23.5784	121.797	-1.12473	107.656	29.953	73.9496
91247	15.6317	124.021	29.0378	119.344	-8.52376	91.6517	22.1037	97.7372	36.8548	89.3221	23.7418	122.001	-1.04814	107.892	30.143	73.7647
91248	15.7583	124.243	29.2243	119.532	-8.33066	91.8096	22.3514	97.7566	37.0993	89.2675	23.9048	122.206	-0.971644	108.128	30.3327	73.5793
91249	15.8845	124.465	29.4105	119.721	-8.13758	91.9674	22.5991	97.7763	37.3438	89.2127	24.0675	122.412	-0.895254	108.365	30.5223	73.3932
91250	16.0104	124.688	29.5963	119.91	-7.94451	92.1251	22.8468	97.7961	37.5883	89.1577	24.2297	122.618	-0.818967	108.601	30.7117	73.2065
91251	16.1359	124.911	29.7817	120.1	-7.75147	92.2828	23.0944	97.8162	37.8328	89.1025	24.3917	122.824	-0.742785	108.837	30.9009	73.0191
91252	16.2612	125.134	29.9668	120.291	-7.55844	92.4405	23.3421	97.8365	38.0773	89.0471	24.5532	123.031	-0.666711	109.074	31.0899	72.8312
91253	16.386	125.358	30.1516	120.483	-7.36544	92.5981	23.5897	97.857	38.3218	88.9915	24.7144	123.239	-0.590744	109.31	31.2787	72.6426
91254	16.5106	125.582	30.3359	120.676	-7.17246	92.7557	23.8374	97.8777	38.5663	88.9357	24.8751	123.448	-0.514887	109.547	31.4674	72.4534
91255	16.6347	125.807	30.5199	120.869	-6.97951	92.9133	24.085	97.8987	38.8108	88.8796	25.0355	123.657	-0.439141	109.783	31.6558	72.2635
91256	16.7586	126.031	30.7036	121.064	-6.78658	93.0708	24.3326	97.9198	39.0552	88.8233	25.1955	123.867	-0.363506	110.02	31.844	72.0729
91257	16.882	126.257	30.8868	121.259	-6.59369	93.2283	24.5802	97.9412	39.2997	88.7668	25.3551	124.077	-0.287985	110.256	32.0321	71.8817
91258	17.0052	126.482	31.0697	121.455	-6.40082	93.3857	24.8278	97.9628	39.5442	88.7101	25.5144	124.288	-0.212579	110.493	32.2199	71.6898
91259	17.1279	126.708	31.2522	121.652	-6.20798	93.5432	25.0754	97.9846	39.7886	88.6531	25.6732	124.5	-0.137288	110.73	32.4075	71.4973
91260	17.2504	126.934	31.4343	121.849	-6.01518	93.7006	25.3229	98.0066	40.0331	88.5958	25.8316	124.713	-0.0621145	110.966	32.5949	71.304
91261	17.3724	127.161	31.616	122.048	-5.82241	93.858	25.5705	98.0289	40.2775	88.5383	25.9896	124.926	0.0129406	111.203	32.7821	71.1101
91262	17.4941	127.388	31.7973	122.247	-5.62968	94.0154	25.818	98.0514	40.522	88.4806	26.1472	125.139	0.0878759	111.44	32.9691	70.9154
91263	17.6154	127.615	31.9783	122.448	-5.43698	94.1728	26.0655	98.0741	40.7664	88.4226	26.3044	125.354	0.16269	111.677	33.1558	70.72
91264	17.7363	127.843	32.1588	122.649	-5.24432	94.3302	26.313	98.0971	41.0109	88.3643	26.4611	125.569	0.237382	111.914	33.3424	70.5239
91265	17.8569	128.071	32.3389	122.851	-5.0517	94.4876	26.5605	98.1203	41.2553	88.3058	26.6175	125.784	0.31195	112.15	33.5287	70.3271
91266	17.9771	128.299	32.5186	123.055	-4.85913	94.645	26.808	98.1438	41.4997	88.2469	26.7734	126.001	0.386393	112.387	33.7147	70.1295
91267	18.0969	128.528	32.6979	123.258	-4.66659	94.8024	27.0555	98.1675	41.7441	88.1878	26.9289	126.218	0.46071	112.624	33.9006	69.9312
91268	18.2164	128.757	32.8768	123.463	-4.4741	94.9599	27.3029	98.1914	41.9885	88.1285	27.084	126.436	0.5349	112.861	34.0862	69.7322
91269	18.3354	128.987	33.0552	123.669	-4.28166	95.1173	27.5503	98.2156	42.2329	88.0688	27.2386	126.654	0.608961	113.099	34.2715	69.5323
91270	18.4541	129.216	33.2333	123.876	-4.08926	95.2747	27.7978	98.24	42.4773	88.0088	27.3928	126.873	0.682891	113.336	34.4567	69.3317
91271	18.5724	129.447	33.4109	124.084	-3.89692	95.4322	28.0452	98.2647	42.7217	87.9485	27.5465	127.093	0.75669	113.573	34.6415	69.1304
91272	18.6903	129.678	33.588	124.293	-3.70462	95.5897	28.2925	98.2897	42.966	87.8879	27.6999	127.314	0.830357	113.81	34.8262	68.9282
91273	18.8078	129.909	33.7647	124.502	-3.51237	95.7472	28.5399	98.3149	43.2104	87.827	27.8527	127.535	0.90389	114.047	35.0106	68.7253
91274	18.9249	130.14	33.941	124.713	-3.32018	95.9048	28.7873	98.3403	43.4547	87.7658	28.0051	127.757	0.977287	114.284	35.1947	68.5215
91275	19.0416	130.372	34.1168	124.925	-3.12804	96.0624	29.0346	98.3661	43.6991	87.7043	28.1571	127.98	1.05055	114.522	35.3785	68.317
91276	19.1579	130.604	34.2922	125.138	-2.93596	96.2201	29.2819	98.392	43.9434	87.6424	28.3086	128.203	1.12367	114.759	35.5621	68.1116
91277	19.2738	130.837	34.4671	125.351	-2.74394	96.3778	29.5293	98.4183	44.1877	87.5802	28.4596	128.427	1.19666	114.997	35.7455	67.9054
91278	19.3893	131.07	34.6416	125.566	-2.55197	96.5355	29.7765	98.4449	44.432	87.5176	28.6102	128.652	1.2695	115.234	35.9285	67.6983
91279	19.5044	131.303	34.8156	125.781	-2.36006	96.6933	30.0238	98.4717	44.6763	87.4547	28.7602	128.877	1.3422	115.472	36.1113	67.4904
91280	19.6191	131.537	34.9891	125.998	-2.16822	96.8511	30.2711	98.4988	44.9206	87.3914	28.9098	129.104	1.41476	115.709	36.2938	67.2817
91281	19.7334	131.771	35.1621	126.216	-1.97644	97.009	30.5183	98.5261	45.1649	87.3278	29.059	129.331	1.48717	115.947	36.4761	67.0721
91282	19.8472	132.006	35.3347	126.435	-1.78472	97.1669	30.7655	98.5538	45.4091	87.2637	29.2076	129.559	1.55944	116.185	36.658	66.8616
91283	19.9607	132.241	35.5068	126.654	-1.59308	97.325	31.0127	98.5817	45.6534	87.1993	29.3558	129.787	1.63157	116.422	36.8397	66.6502
91284	20.0737	132.476	35.6784	126.875	-1.40149	97.4831	31.2599	98.61	45.8976	87.1346	29.5035	130.017	1.70354	116.66	37.0211	66.4379
91285	20.1863	132.712	35.8495	127.097	-1.20998	97.6412	31.5071	98.6385	46.1418	87.0694	29.6506	130.247	1.77537	116.898	37.2022	66.2248
91286	20.2984	132.948	36.02	127.32	-1.01854	97.7994	31.7542	98.6673	46.386	87.0038	29.7973	130.477	1.84704	117.136	37.383	66.0107
91287	20.4102	133.185	36.1901	127.544	-0.827171	97.9578	32.0014	98.6964	46.6302	86.9378	29.9435	130.709	1.91857	117.374	37.5634	65.7957
91288	20.5215	133.422	36.3597	127.769	-0.635876	98.1161	32.2485	98.7259	46.8743	86.8714	30.0892	130.941	1.98994	117.612	37.7436	65.5798
91289	20.6324	133.659	36.5288	127.996	-0.444656	98.2746	32.4956	98.7556	47.1185	86.8045	30.2343	131.174	2.06115	117.85	37.9235	65.3629
91290	20.7428	133.897	36.6973	128.223	-0.253513	98.4332	32.7426	98.7857	47.3626	86.7373	30.379	131.408	2.13221	118.088	38.1031	65.1451
91291	20.8528	134.135	36.8653	128.451	-0.0624479	98.5918	32.9897	98.816	47.6068	86.6696	30.5231	131.643	2.20311	118.326	38.2823	64.9263
91292	20.9624	134.374	37.0328	128.681	0.128537	98.7506	33.2367	98.8467	47.8509	86.6014	30.6667	131.878	2.27386	118.565	38.4612	64.7066
91293	21.0715	134.613	37.1997	128.911	0.319441	98.9095	33.4838	98.8777	48.0949	86.5327	30.8098	132.115	2.34445	118.803	38.6398	64.4859
91294	21.1801	134.852	37.3661	129.143	0.510262	99.0684	33.7307	98.9091	48.339	86.4637	30.9523	132.352	2.41487	119.041	38.8181	64.2642
91295	21.2883	135.092	37.532	129.376	0.700999	99.2275	33.9777	98.9407	48.5831	86.3941	31.0943	132.589	2.48513	119.28	38.996	64.0415
91296	21.3961	135.332	37.6973	129.61	0.89165	99.3866	34.2247	98.9728	48.8271	86.324	31.2357	132.828	2.55523	119.518	39.1736	63.8178
91297	21.5034	135.573	37.862	129.845	1.08221	99.5459	34.4716	99.0051	49.0711	86.2534	31.3767	133.067	2.62517	119.757	39.3508	63.5931
91298	21.6103	135.814	38.0262	130.082	1.27269	99.7053	34.7185	99.0378	49.3151	86.1824	31.517	133.308	2.69494	119.996	39.5277	63.3674
91299	21.7166	136.056	38.1898	130.319	1.46307	99.8648	34.9654	99.0708	49.5591	86.1108	31.6568	133.548	2.76454	120.234	39.7043	63.1406
91300	21.8225	136.298	38.3528	130.558	1.65336	100.025	35.2122	99.1042	49.803	86.0386	31.7961	133.79	2.83398	120.473	39.8805	62.9128
91301	21.928	136.54	38.5153	130.798	1.84356	100.184	35.4591	99.138	50.047	85.966	31.9348	134.033	2.90325	120.712	40.0563	62.6839
91302	22.033	136.782	38.6772	131.038	2.03367	100.344	35.7059	99.1721	50.2909	85.8928	32.0729	134.276	2.97234	120.951	40.2318	62.4539
91303	22.1375	137.026	38.8385	131.281	2.22367	100.504	35.9527	99.2065	50.5348	85.819	32.2105	134.521	3.04126	121.189	40.4069	62.2229
91304	22.2416	137.269	38.9991	131.524	2.41358	100.664	36.1994	99.2414	50.7786	85.7446	32.3475	134.766	3.11001	121.429	40.5816	61.9908
91305	22.3451	137.513	39.1592	131.769	2.60339	100.825	36.4462	99.2766	51.0224	85.6697	32.4839	135.012	3.17859	121.668	40.756	61.7576
91306	22.4482	137.758	39.3187	132.015	2.7931	100.985	36.6929	99.3122	51.2663	85.5942	32.6197	135.258	3.24699	121.907	40.93	61.5232
91307	22.5508	138.002	39.4775	132.262	2.9827	101.146	36.9396	99.3482	51.51	85.518	32.7549	135.506	3.31521	122.146	41.1035	61.2878
91308	22.6529	138.248	39.6358	132.51	3.1722	101.306	37.1863	99.3845	51.7538	85.4413	32.8896	135.754	3.38326	122.385	41.2767	61.0512
91309	22.7546	138.493	39.7933	132.76	3.3616	101.467	37.4329	99.4213	51.9975	85.3639	33.0236	136.003	3.45113	122.625	41.4495	60.8135
91310	22.8557	138.739	39.9503	133.011	3.55089	101.629	37.6795	99.4585	52.2413	85.2858	33.157	136.253	3.51881	122.864	41.6219	60.5746
91311	22.9564	138.986	40.1067	133.263	3.74006	101.79	37.9261	99.496	52.4849	85.2071	33.2899	136.504	3.58632	123.103	41.7939	60.3346
91312	23.0565	139.233	40.2623	133.516	3.92913	101.951	38.1727	99.534	52.7286	85.1278	33.4221	136.756	3.65364	123.343	41.9655	60.0934
91313	23.1562	139.48	40.4174	133.77	4.11808	102.113	38.4192	99.5724	52.9722	85.0477	33.5537	137.009	3.72077	123.583	42.1367	59.851
91314	23.2553	139.728	40.5717	134.026	4.30692	102.274	38.6657	99.6112	53.2158	84.9669	33.6847	137.262	3.78773	123.822	42.3074	59.6074
91315	23.354	139.976	40.7254	134.284	4.49565	102.436	38.9122	99.6505	53.4594	84.8855	33.815	137.516	3.85449	124.062	42.4777	59.3627
91316	23.4521	140.225	40.8785	134.542	4.68425	102.598	39.1586	99.6902	53.7029	84.8032	33.9448	137.771	3.92107	124.302	42.6476	59.1166
91317	23.5497	140.474	41.0308	134.802	4.87274	102.761	39.4051	99.7303	53.9464	84.7203	34.0739	138.027	3.98746	124.542	42.817	58.8694
91318	23.6469	140.723	41.1825	135.063	5.06111	102.923	39.6514	99.7708	54.1899	84.6365	34.2023	138.284	4.05365	124.782	42.986	58.6209
91319	23.7435	140.973	41.3335	135.325	5.24935	103.086	39.8978	99.8119	54.4333	84.552	34.3302	138.542	4.11966	125.022	43.1546	58.3712
91320	23.8396	141.224	41.4838	135.589	5.43747	103.249	40.1441	99.8533	54.6767	84.4667	34.4573	138.8	4.18547	125.262	43.3227	58.1202
91321	23.9351	141.474	41.6334	135.854	5.62547	103.412	40.3904	99.8953	54.9201	84.3806	34.5838	139.06	4.25109	125.502	43.4903	57.8679
91322	24.0302	141.725	41.7822	136.12	5.81334	103.575	40.6367	99.9377	55.1634	84.2936	34.7097	139.32	4.31651	125.742	43.6574	57.6144
91323	24.1247	141.977	41.9304	136.388	6.00107	103.739	40.8829	99.9806	55.4067	84.2058	34.8349	139.581	4.38174	125.983	43.8242	57.3595
91324	24.2187	142.229	42.0778	136.657	6.18868	103.902	41.1291	100.024	55.6499	84.1171	34.9594	139.843	4.44677	126.223	43.9904	57.1033
91325	24.3122	142.481	42.2245	136.927	6.37616	104.066	41.3753	100.068	55.8932	84.0275	35.0832	140.106	4.51161	126.464	44.1561	56.8458
91326	24.4051	142.734	42.3704	137.199	6.5635	104.23	41.6215	100.112	56.1363	83.937	35.2064	140.37	4.57624	126.704	44.3214	56.587
91327	24.4975	142.988	42.5157	137.472	6.7507	104.394	41.8676	100.157	56.3795	83.8456	35.3289	140.635	4.64067	126.945	44.4861	56.3269
91328	24.5893	143.241	42.6601	137.746	6.93777	104.559	42.1136	100.202	56.6226	83.7532	35.4507	140.9	4.7049	127.186	44.6504	56.0654
91329	24.6807	143.495	42.8038	138.022	7.1247	104.724	42.3597	100.248	56.8656	83.6599	35.5718	141.167	4.76892	127.426	44.8141	55.8025
91330	24.7714	143.75	42.9467	138.299	7.31149	104.889	42.6056	100.295	57.1086	83.5655	35.6922	141.434	4.83274	127.667	44.9774	55.5382
91331	24.8617	144.005	43.0889	138.578	7.49813	105.054	42.8516	100.342	57.3516	83.4701	35.812	141.702	4.89635	127.908	45.1401	55.2726
91332	24.9513	144.26	43.2303	138.858	7.68463	105.219	43.0975	100.389	57.5945	83.3737	35.931	141.971	4.95976	128.149	45.3023	55.0055
91333	25.0404	144.516	43.3708	139.139	7.87099	105.385	43.3434	100.437	57.8373	83.2763	36.0493	142.241	5.02296	128.39	45.4639	54.737
91334	25.129	144.772	43.5106	139.422	8.05719	105.551	43.5893	100.486	58.0801	83.1777	36.1668	142.512	5.08595	128.631	45.6251	54.4671
91335	25.217	145.029	43.6496	139.706	8.24325	105.717	43.8351	100.535	58.3229	83.078	36.2837	142.784	5.14873	128.873	45.7856	54.1958
91336	25.3045	145.286	43.7878	139.992	8.42916	105.884	44.0809	100.585	58.5656	82.9772	36.3998	143.056	5.21129	129.114	45.9457	53.923
91337	25.3913	145.543	43.9252	140.279	8.61491	106.05	44.3266	100.635	58.8083	82.8752	36.5152	143.33	5.27365	129.356	46.1052	53.6488
91338	25.4777	145.801	44.0617	140.567	8.8005	106.217	44.5723	100.686	59.0509	82.772	36.6299	143.604	5.33579	129.597	46.2641	53.3731
91339	25.5634	146.06	44.1974	140.857	8.98594	106.385	44.818	100.738	59.2934	82.6675	36.7438	143.879	5.39771	129.839	46.4224	53.0959
91340	25.6486	146.318	44.3322	141.148	9.17122	106.552	45.0636	100.79	59.5359	82.5618	36.857	144.155	5.45942	130.08	46.5802	52.8172
91341	25.7332	146.577	44.4663	141.441	9.35634	106.72	45.3091	100.843	59.7783	82.4549	36.9694	144.432	5.52091	130.322	46.7374	52.5369
91342	25.8172	146.837	44.5994	141.735	9.5413	106.888	45.5547	100.896	60.0207	82.3465	37.081	144.71	5.58218	130.564	46.894	52.2552
91343	25.9007	147.097	44.7317	142.031	9.72609	107.056	45.8001	100.95	60.263	82.2369	37.1919	144.989	5.64323	130.806	47.05	51.972
91344	25.9835	147.357	44.8631	142.328	9.91072	107.225	46.0456	101.005	60.5052	82.1258	37.3021	145.269	5.70406	131.048	47.2053	51.6872
91345	26.0658	147.618	44.9937	142.626	10.0952	107.394	46.291	101.061	60.7474	82.0134	37.4115	145.549	5.76467	131.29	47.3601	51.4008
91346	26.1475	147.879	45.1233	142.926	10.2795	107.563	46.5363	101.117	60.9895	81.8994	37.52	145.831	5.82505	131.532	47.5143	51.1129
91347	26.2286	148.141	45.252	143.227	10.4636	107.732	46.7816	101.174	61.2316	81.784	37.6278	146.113	5.88521	131.774	47.6678	50.8234
91348	26.3091	148.403	45.3799	143.53	10.6475	107.902	47.0268	101.231	61.4736	81.6671	37.7349	146.396	5.94515	132.017	47.8207	50.5323
91349	26.3891	148.666	45.5068	143.835	10.8313	108.072	47.272	101.289	61.7154	81.5485	37.8411	146.68	6.00485	132.259	47.9729	50.2396
91350	26.4684	148.928	45.6329	144.14	11.0149	108.242	47.5172	101.348	61.9573	81.4283	37.9465	146.965	6.06433	132.501	48.1245	49.9453
91351	26.5471	149.192	45.758	144.447	11.1983	108.413	47.7623	101.408	62.199	81.3065	38.0511	147.251	6.12358	132.744	48.2755	49.6493
91352	26.6252	149.455	45.8821	144.756	11.3815	108.584	48.0073	101.468	62.4407	81.183	38.155	147.538	6.1826	132.987	48.4258	49.3518
91353	26.7028	149.719	46.0053	145.066	11.5646	108.755	48.2523	101.529	62.6823	81.0577	38.258	147.826	6.24139	133.229	48.5754	49.0526
91354	26.7797	149.984	46.1276	145.378	11.7474	108.927	48.4973	101.591	62.9237	80.9307	38.3602	148.114	6.29995	133.472	48.7243	48.7517
91355	26.8559	150.249	46.2489	145.691	11.9301	109.099	48.7422	101.654	63.1652	80.8018	38.4615	148.403	6.35827	133.715	48.8726	48.4492
91356	26.9316	150.514	46.3693	146.006	12.1126	109.271	48.987	101.718	63.4065	80.671	38.5621	148.694	6.41635	133.958	49.0201	48.1449
91357	27.0067	150.78	46.4886	146.322	12.2949	109.444	49.2318	101.782	63.6477	80.5382	38.6618	148.985	6.4742	134.201	49.167	47.839
91358	27.0812	151.046	46.607	146.639	12.477	109.616	49.4765	101.847	63.8888	80.4035	38.7606	149.277	6.53182	134.444	49.3131	47.5314
91359	27.155	151.312	46.7244	146.958	12.6589	109.79	49.7211	101.913	64.1299	80.2667	38.8587	149.57	6.58919	134.688	49.4585	47.222
91360	27.2282	151.579	46.8408	147.279	12.8406	109.963	49.9657	101.98	64.3708	80.1278	38.9558	149.863	6.64633	134.931	49.6032	46.911
91361	27.3008	151.846	46.9562	147.601	13.0221	110.137	50.2103	102.048	64.6117	79.9867	39.0522	150.158	6.70322	135.174	49.7471	46.5982
91362	27.3727	152.114	47.0705	147.924	13.2034	110.311	50.4548	102.117	64.8524	79.8433	39.1476	150.454	6.75988	135.418	49.8904	46.2837
91363	27.4441	152.382	47.1839	148.249	13.3845	110.486	50.6992	102.186	65.093	79.6977	39.2422	150.75	6.81629	135.661	50.0328	45.9674
91364	27.5147	152.65	47.2962	148.575	13.5654	110.661	50.9435	102.257	65.3335	79.5497	39.336	151.047	6.87246	135.905	50.1745	45.6493
91365	27.5848	152.919	47.4074	148.903	13.7461	110.837	51.1878	102.328	65.5739	79.3993	39.4288	151.345	6.92838	136.149	50.3154	45.3295
91366	27.6542	153.188	47.5176	149.232	13.9265	111.012	51.432	102.4	65.8142	79.2463	39.5208	151.644	6.98406	136.393	50.4556	45.0078
91367	27.723	153.458	47.6268	149.563	14.1068	111.188	51.6762	102.474	66.0543	79.0908	39.6119	151.944	7.03949	136.637	50.5949	44.6844
91368	27.7911	153.727	47.7349	149.895	14.2868	111.365	51.9203	102.548	66.2944	78.9326	39.7021	152.244	7.09467	136.881	50.7334	44.3592
91369	27.8586	153.998	47.8419	150.229	14.4667	111.542	52.1643	102.623	66.5343	78.7716	39.7914	152.546	7.1496	137.125	50.8712	44.0322
91370	27.9255	154.268	47.9478	150.564	14.6463	111.719	52.4082	102.7	66.774	78.6079	39.8798	152.848	7.20428	137.369	51.0081	43.7033
91371	27.9917	154.54	48.0527	150.9	14.8257	111.896	52.6521	102.777	67.0136	78.4412	39.9674	153.151	7.25871	137.613	51.1442	43.3726
91372	28.0572	154.811	48.1564	151.238	15.0049	112.074	52.8959	102.856	67.2531	78.2715	40.054	153.455	7.31289	137.858	51.2795	43.0401
91373	28.1221	155.083	48.2591	151.577	15.1838	112.253	53.1396	102.935	67.4924	78.0987	40.1397	153.76	7.36682	138.102	51.4139	42.7057
91374	28.1863	155.355	48.3606	151.918	15.3625	112.432	53.3832	103.016	67.7316	77.9227	40.2244	154.066	7.42049	138.347	51.5475	42.3694
91375	28.2499	155.627	48.461	152.261	15.541	112.611	53.6268	103.098	67.9706	77.7434	40.3083	154.372	7.4739	138.591	51.6802	42.0313
91376	28.3128	155.9	48.5602	152.604	15.7193	112.79	53.8703	103.181	68.2094	77.5606	40.3912	154.679	7.52706	138.836	51.8121	41.6913
91377	28.3751	156.173	48.6583	152.95	15.8973	112.97	54.1137	103.265	68.4481	77.3744	40.4732	154.987	7.57996	139.081	51.9431	41.3495
91378	28.4367	156.447	48.7553	153.296	16.0751	113.151	54.357	103.351	68.6866	77.1845	40.5543	155.296	7.6326	139.326	52.0731	41.0057
91379	28.4976	156.721	48.8511	153.644	16.2526	113.332	54.6002	103.437	68.9249	76.9909	40.6344	155.606	7.68499	139.571	52.2023	40.66
91380	28.5578	156.995	48.9457	153.993	16.4299	113.513	54.8433	103.525	69.163	76.7933	40.7135	155.916	7.73711	139.816	52.3306	40.3125
91381	28.6174	157.27	49.0392	154.344	16.607	113.694	55.0864	103.614	69.401	76.5918	40.7918	156.227	7.78897	140.061	52.4579	39.963
91382	28.6763	157.545	49.1315	154.696	16.7838	113.876	55.3293	103.705	69.6387	76.3861	40.869	156.539	7.84056	140.306	52.5844	39.6116
91383	28.7345	157.82	49.2226	155.05	16.9603	114.059	55.5722	103.797	69.8762	76.1761	40.9453	156.852	7.89189	140.551	52.7099	39.2584
91384	28.792	158.096	49.3125	155.404	17.1367	114.242	55.815	103.89	70.1135	75.9616	41.0207	157.166	7.94296	140.797	52.8344	38.9031
91385	28.8489	158.372	49.4012	155.761	17.3127	114.425	56.0576	103.984	70.3506	75.7425	41.095	157.48	7.99376	141.042	52.958	38.546
91386	28.905	158.648	49.4887	156.118	17.4885	114.609	56.3002	104.08	70.5875	75.5186	41.1684	157.795	8.04429	141.288	53.0806	38.1869
91387	28.9605	158.925	49.5749	156.477	17.6641	114.794	56.5427	104.178	70.824	75.2898	41.2408	158.111	8.09456	141.534	53.2022	37.8258
91388	29.0153	159.202	49.66	156.837	17.8394	114.978	56.785	104.277	71.0604	75.0559	41.3122	158.427	8.14456	141.779	53.3229	37.4629
91389	29.0694	159.479	49.7437	157.199	18.0144	115.163	57.0273	104.377	71.2965	74.8166	41.3827	158.745	8.19428	142.025	53.4425	37.0979
91390	29.1229	159.756	49.8263	157.562	18.1892	115.349	57.2694	104.479	71.5323	74.5718	41.4521	159.063	8.24374	142.271	53.5611	36.731
91391	29.1756	160.034	49.9076	157.926	18.3636	115.535	57.5114	104.583	71.7678	74.3213	41.5206	159.381	8.29292	142.517	53.6788	36.3622
91392	29.2276	160.313	49.9876	158.291	18.5379	115.722	57.7534	104.688	72.0031	74.0648	41.588	159.701	8.34183	142.763	53.7953	35.9914
91393	29.2789	160.591	50.0663	158.658	18.7118	115.909	57.9952	104.794	72.238	73.8022	41.6544	160.021	8.39047	143.009	53.9109	35.6187
91394	29.3296	160.87	50.1438	159.026	18.8855	116.097	58.2368	104.903	72.4726	73.5332	41.7199	160.342	8.43883	143.256	54.0254	35.2439
91395	29.3795	161.149	50.22	159.395	19.0589	116.285	58.4784	105.013	72.7069	73.2574	41.7843	160.663	8.48691	143.502	54.1388	34.8672
91396	29.4287	161.429	50.2949	159.766	19.232	116.473	58.7198	105.125	72.9409	72.9748	41.8477	160.986	8.53472	143.749	54.2512	34.4886
91397	29.4772	161.708	50.3685	160.137	19.4048	116.662	58.9612	105.239	73.1744	72.6849	41.9101	161.309	8.58225	143.995	54.3625	34.108
91398	29.5251	161.988	50.4408	160.51	19.5774	116.852	59.2023	105.354	73.4077	72.3875	41.9714	161.632	8.6295	144.242	54.4727	33.7254
91399	29.5722	162.269	50.5118	160.884	19.7496	117.042	59.4434	105.472	73.6405	72.0824	42.0317	161.956	8.67647	144.488	54.5818	33.3409
91400	29.6185	162.549	50.5814	161.259	19.9216	117.232	59.6843	105.591	73.8729	71.769	42.091	162.281	8.72316	144.735	54.6897	32.9544
91401	29.6642	162.83	50.6498	161.636	20.0933	117.423	59.925	105.713	74.1049	71.4472	42.1492	162.607	8.76957	144.982	54.7966	32.566
91402	29.7092	163.112	50.7168	162.013	20.2646	117.615	60.1657	105.836	74.3364	71.1165	42.2064	162.933	8.81569	145.229	54.9023	32.1756
91403	29.7534	163.393	50.7824	162.392	20.4357	117.807	60.4061	105.961	74.5675	70.7767	42.2626	163.26	8.86153	145.476	55.0069	31.7832
91404	29.7969	163.675	50.8467	162.771	20.6065	117.999	60.6465	106.089	74.7981	70.4271	42.3177	163.587	8.90709	145.723	55.1103	31.3889
91405	29.8397	163.957	50.9097	163.152	20.777	118.192	60.8866	106.219	75.0282	70.0676	42.3717	163.915	8.95236	145.97	55.2126	30.9927
91406	29.8818	164.239	50.9713	163.534	20.9471	118.386	61.1266	106.35	75.2577	69.6975	42.4247	164.244	8.99734	146.218	55.3137	30.5945
91407	29.9232	164.522	51.0315	163.917	21.117	118.58	61.3665	106.485	75.4867	69.3165	42.4766	164.573	9.04204	146.465	55.4136	30.1944
91408	29.9638	164.804	51.0903	164.301	21.2865	118.775	61.6062	106.621	75.7151	68.924	42.5275	164.903	9.08645	146.713	55.5122	29.7923
91409	30.0037	165.087	51.1478	164.686	21.4557	118.97	61.8457	106.76	75.9429	68.5195	42.5773	165.233	9.13057	146.96	55.6097	29.3883
91410	30.0429	165.371	51.2039	165.072	21.6246	119.166	62.085	106.901	76.1701	68.1024	42.626	165.564	9.17439	147.208	55.706	28.9824
91411	30.0814	165.654	51.2585	165.459	21.7932	119.362	62.3242	107.045	76.3966	67.6722	42.6737	165.895	9.21793	147.455	55.801	28.5746
91412	30.1191	165.938	51.3118	165.847	21.9615	119.559	62.5631	107.192	76.6223	67.2282	42.7202	166.227	9.26117	147.703	55.8948	28.1649
91413	30.1561	166.222	51.3637	166.236	22.1294	119.756	62.8019	107.341	76.8473	66.7698	42.7657	166.56	9.30413	147.951	55.9873	27.7534
91414	30.1923	166.506	51.4141	166.625	22.297	119.954	63.0405	107.493	77.0716	66.2962	42.8101	166.893	9.34678	148.199	56.0786	27.3399
91415	30.2278	166.791	51.4632	167.016	22.4643	120.153	63.2789	107.647	77.295	65.8068	42.8534	167.226	9.38915	148.447	56.1686	26.9246
91416	30.2626	167.076	51.5108	167.408	22.6312	120.352	63.517	107.805	77.5175	65.3006	42.8956	167.56	9.43121	148.695	56.2574	26.5074
91417	30.2966	167.36	51.557	167.8	22.7978	120.552	63.755	107.965	77.7391	64.777	42.9368	167.895	9.47298	148.943	56.3448	26.0883
91418	30.3299	167.645	51.6018	168.193	22.9641	120.752	63.9928	108.128	77.9598	64.2349	42.9768	168.23	9.51446	149.192	56.4309	25.6675
91419	30.3624	167.931	51.6451	168.587	23.13	120.953	64.2303	108.294	78.1794	63.6735	43.0157	168.565	9.55563	149.44	56.5157	25.2448
91420	30.3943	168.216	51.687	168.982	23.2955	121.154	64.4676	108.464	78.3979	63.0917	43.0535	168.901	9.59651	149.689	56.5992	24.8203
91421	30.4253	168.502	51.7274	169.377	23.4608	121.356	64.7046	108.637	78.6153	62.4886	43.0902	169.238	9.63708	149.937	56.6814	24.394
91422	30.4556	168.788	51.7664	169.774	23.6256	121.559	64.9415	108.813	78.8315	61.8629	43.1258	169.574	9.67736	150.186	56.7622	23.966
91423	30.4852	169.074	51.8039	170.17	23.7901	121.762	65.178	108.992	79.0463	61.2134	43.1603	169.911	9.71733	150.434	56.8417	23.5361
91424	30.514	169.361	51.8399	170.568	23.9542	121.966	65.4143	109.175	79.2599	60.539	43.1937	170.249	9.757	150.683	56.9198	23.1046
91425	30.5421	169.647	51.8745	170.966	24.118	122.171	65.6504	109.362	79.4719	59.8382	43.226	170.587	9.79636	150.932	56.9965	22.6713
91426	30.5694	169.934	51.9076	171.365	24.2814	122.376	65.8862	109.552	79.6825	59.1096	43.2571	170.925	9.83543	151.181	57.0718	22.2363
91427	30.596	170.221	51.9393	171.765	24.4444	122.581	66.1217	109.746	79.8914	58.3517	43.2871	171.264	9.87418	151.43	57.1458	21.7997
91428	30.6218	170.508	51.9695	172.165	24.6071	122.787	66.3569	109.945	80.0986	57.5628	43.316	171.603	9.91263	151.679	57.2183	21.3613
91429	30.6469	170.795	51.9982	172.565	24.7694	122.995	66.5918	110.147	80.3039	56.7414	43.3438	171.942	9.95078	151.928	57.2894	20.9214
91430	30.6712	171.082	52.0254	172.966	24.9313	123.202	66.8264	110.353	80.5072	55.8856	43.3705	172.282	9.98861	152.178	57.3591	20.4798
91431	30.6947	171.37	52.0511	173.368	25.0928	123.41	67.0607	110.564	80.7085	54.9935	43.396	172.622	10.0261	152.427	57.4274	20.0366
91432	30.7175	171.657	52.0753	173.77	25.2539	123.619	67.2947	110.779	80.9075	54.0631	43.4204	172.962	10.0634	152.676	57.4942	19.5918
91433	30.7395	171.945	52.0981	174.173	25.4147	123.829	67.5283	110.998	81.1042	53.0923	43.4436	173.303	10.1003	152.926	57.5596	19.1455
91434	30.7608	172.233	52.1193	174.576	25.575	124.039	67.7616	111.222	81.2983	52.0789	43.4657	173.643	10.1369	153.175	57.6235	18.6976
91435	30.7813	172.521	52.139	174.979	25.735	124.249	67.9945	111.451	81.4896	51.0206	43.4867	173.984	10.1731	153.425	57.686	18.2483
91436	30.8011	172.81	52.1573	175.383	25.8945	124.461	68.2271	111.686	81.6781	49.9151	43.5066	174.326	10.2091	153.675	57.7469	17.7974
91437	30.8201	173.098	52.174	175.787	26.0537	124.673	68.4592	111.925	81.8635	48.7597	43.5253	174.667	10.2448	153.924	57.8064	17.3452
91438	30.8383	173.387	52.1893	176.191	26.2124	124.886	68.691	112.169	82.0455	47.552	43.5428	175.009	10.2801	154.174	57.8644	16.8915
91439	30.8558	173.675	52.203	176.596	26.3708	125.099	68.9224	112.419	82.2239	46.2894	43.5592	175.351	10.3152	154.424	57.9209	16.4364
91440	30.8725	173.964	52.2152	177.001	26.5287	125.313	69.1534	112.674	82.3986	44.9691	43.5745	175.693	10.3499	154.674	57.9759	15.9799
91441	30.8884	174.253	52.2259	177.406	26.6862	125.528	69.3839	112.936	82.5692	43.5885	43.5887	176.036	10.3843	154.924	58.0294	15.5221
91442	30.9035	174.542	52.2351	177.811	26.8433	125.744	69.614	113.203	82.7354	42.1449	43.6016	176.378	10.4184	155.174	58.0813	15.0631
91443	30.918	174.831	52.2428	178.216	26.9999	125.96	69.8436	113.476	82.8969	40.6358	43.6135	176.721	10.4521	155.424	58.1317	14.6027
91444	30.9316	175.12	52.249	178.622	27.1562	126.177	70.0727	113.756	83.0534	39.0585	43.6242	177.064	10.4856	155.675	58.1806	14.1411
91445	30.9445	175.409	52.2536	179.028	27.312	126.394	70.3014	114.042	83.2045	37.4109	43.6337	177.406	10.5187	155.925	58.2279	13.6783
91446	30.9566	175.698	52.2568	179.433	27.4673	126.612	70.5295	114.335	83.35	35.6907	43.6421	177.75	10.5515	156.176	58.2737	13.2143
91447	30.9679	175.988	52.2584	179.839	27.6223	126.831	70.7571	114.636	83.4894	33.8962	43.6493	178.093	10.584	156.426	58.3178	12.7492
91448	30.9785	176.277	52.2585	180.245	27.7767	127.051	70.9841	114.943	83.6222	32.026	43.6554	178.436	10.6162	156.677	58.3605	12.283
91449	30.9883	176.566	52.2571	180.651	27.9308	127.271	71.2106	115.258	83.7482	30.0794	43.6604	178.779	10.648	156.927	58.4015	11.8157
91450	30.9973	176.856	52.2542	181.057	28.0844	127.493	71.4365	115.581	83.8668	28.0559	43.6642	179.122	10.6795	157.178	58.441	11.3474
91451	31.0055	177.146	52.2497	181.462	28.2375	127.714	71.6618	115.911	83.9776	25.9562	43.6668	179.466	10.7107	157.429	58.4789	10.8781
91452	31.013	177.435	52.2438	181.868	28.3902	127.937	71.8864	116.25	84.0802	23.7815	43.6683	179.809	10.7416	157.68	58.5152	10.4079
91453	31.0197	177.725	52.2363	182.273	28.5424	128.16	72.1104	116.598	84.1742	21.5342	43.6686	180.153	10.7722	157.931	58.5498	9.93671
91454	31.0257	178.015	52.2274	182.679	28.6941	128.384	72.3337	116.954	84.2591	19.2174	43.6678	180.496	10.8024	158.181	58.5829	9.46466
91455	31.0308	178.305	52.2169	183.084	28.8454	128.609	72.5562	117.32	84.3346	16.8357	43.6658	180.839	10.8323	158.433	58.6144	8.99176
91456	31.0352	178.595	52.2049	183.489	28.9962	128.834	72.7781	117.695	84.4002	14.3945	43.6627	181.183	10.8619	158.684	58.6443	8.51807
91457	31.0389	178.884	52.1914	183.893	29.1465	129.06	72.9991	118.08	84.4555	11.9005	43.6584	181.526	10.8911	158.935	58.6725	8.04361
91458	31.0417	179.174	52.1764	184.298	29.2964	129.287	73.2194	118.475	84.5004	9.36146	43.653	181.869	10.92	159.186	58.6991	7.56843
91459	31.0438	179.464	52.1599	184.702	29.4458	129.515	73.4388	118.88	84.5345	6.786	43.6464	182.212	10.9486	159.437	58.7241	7.09257
91460	31.0451	179.754	52.1418	185.106	29.5946	129.744	73.6574	119.297	84.5576	4.18368	43.6387	182.555	10.9769	159.689	58.7475	6.61608
91461	31.0456	180.044	52.1223	185.509	29.743	129.973	73.8751	119.725	84.5696	1.56467	43.6298	182.898	11.0048	159.94	58.7692	6.13898
91462	31.0454	180.334	52.1013	185.912	29.8909	130.203	74.0918	120.165	84.5704	358.94	43.6198	183.241	11.0324	160.192	58.7892	5.66133
91463	31.0444	180.624	52.0788	186.315	30.0383	130.434	74.3075	120.617	84.56	356.319	43.6086	183.584	11.0597	160.443	58.8077	5.18318
91464	31.0426	180.914	52.0548	186.717	30.1852	130.665	74.5223	121.082	84.5385	353.714	43.5963	183.927	11.0866	160.695	58.8245	4.70455
91465	31.0401	181.204	52.0293	187.119	30.3316	130.897	74.736	121.559	84.506	351.134	43.5829	184.269	11.1132	160.946	58.8396	4.22549
91466	31.0368	181.494	52.0023	187.52	30.4774	131.131	74.9485	122.051	84.4627	348.589	43.5682	184.611	11.1395	161.198	58.8531	3.74606
91467	31.0327	181.784	51.9738	187.92	30.6228	131.364	75.16	122.556	84.4088	346.088	43.5525	184.953	11.1654	161.45	58.8649	3.26628
91468	31.0278	182.073	51.9439	188.321	30.7676	131.599	75.3702	123.076	84.3446	343.639	43.5356	185.295	11.191	161.702	58.8751	2.78621
91469	31.0222	182.363	51.9124	188.72	30.9119	131.834	75.5791	123.612	84.2706	341.248	43.5175	185.637	11.2163	161.954	58.8836	2.30589
91470	31.0158	182.653	51.8795	189.119	31.0556	132.071	75.7868	124.163	84.187	338.922	43.4984	185.978	11.2412	162.206	58.8905	1.82536
91471	31.0086	182.942	51.8451	189.518	31.1989	132.308	75.9931	124.731	84.0943	336.664	43.478	186.32	11.2658	162.458	58.8957	1.34467
91472	31.0006	183.232	51.8093	189.915	31.3416	132.546	76.198	125.315	83.9929	334.479	43.4566	186.661	11.2901	162.71	58.8993	0.863862
91473	30.9919	183.522	51.772	190.312	31.4837	132.784	76.4013	125.917	83.8832	332.368	43.434	187.001	11.314	162.962	58.9011	0.382981
91474	30.9824	183.811	51.7332	190.709	31.6253	133.024	76.6031	126.538	83.7657	330.334	43.4103	187.342	11.3376	163.214	58.9014	359.902
91475	30.9721	184.101	51.693	191.104	31.7664	133.264	76.8033	127.177	83.6408	328.376	43.3854	187.682	11.3608	163.466	58.8999	359.421
91476	30.9611	184.39	51.6514	191.499	31.9069	133.505	77.0018	127.837	83.5089	326.495	43.3594	188.022	11.3838	163.719	58.8968	358.94
91477	30.9493	184.679	51.6083	191.893	32.0468	133.747	77.1984	128.516	83.3704	324.689	43.3323	188.361	11.4063	163.971	58.8921	358.46
91478	30.9367	184.969	51.5637	192.286	32.1862	133.99	77.3932	129.217	83.2258	322.959	43.304	188.701	11.4286	164.223	58.8856	357.979
91479	30.9234	185.258	51.5177	192.679	32.325	134.233	77.5861	129.94	83.0755	321.3	43.2747	189.04	11.4505	164.476	58.8776	357.499
91480	30.9093	185.547	51.4703	193.071	32.4633	134.478	77.7768	130.685	82.9197	319.713	43.2442	189.378	11.472	164.728	58.8678	357.019
91481	30.8944	185.836	51.4215	193.461	32.6009	134.723	77.9655	131.454	82.7589	318.194	43.2126	189.716	11.4932	164.981	58.8564	356.539
91482	30.8788	186.125	51.3713	193.851	32.738	134.969	78.1518	132.248	82.5933	316.741	43.1798	190.054	11.5141	165.233	58.8434	356.059
91483	30.8624	186.414	51.3196	194.24	32.8745	135.216	78.3359	133.067	82.4234	315.352	43.146	190.391	11.5346	165.486	58.8287	355.58
91484	30.8453	186.702	51.2665	194.628	33.0104	135.464	78.5174	133.912	82.2493	314.023	43.111	190.728	11.5548	165.739	58.8124	355.101
91485	30.8273	186.991	51.2121	195.016	33.1457	135.712	78.6964	134.784	82.0713	312.752	43.075	191.065	11.5747	165.991	58.7944	354.623
91486	30.8087	187.279	51.1562	195.402	33.2804	135.962	78.8726	135.684	81.8898	311.537	43.0378	191.401	11.5942	166.244	58.7747	354.145
91487	30.7892	187.568	51.099	195.787	33.4145	136.212	79.046	136.613	81.7049	310.374	42.9995	191.737	11.6133	166.497	58.7534	353.668
91488	30.769	187.856	51.0403	196.171	33.548	136.463	79.2163	137.572	81.5169	309.262	42.9601	192.072	11.6321	166.75	58.7305	353.191
91489	30.748	188.144	50.9803	196.554	33.6808	136.715	79.3836	138.561	81.3259	308.197	42.9196	192.407	11.6506	167.003	58.706	352.715
91490	30.7263	188.432	50.9189	196.936	33.8131	136.968	79.5476	139.581	81.1322	307.177	42.8781	192.741	11.6687	167.256	58.6798	352.24
91491	30.7038	188.719	50.8562	197.317	33.9447	137.221	79.7081	140.634	80.9359	306.2	42.8354	193.075	11.6865	167.509	58.652	351.765
91492	30.6806	189.007	50.7921	197.697	34.0757	137.476	79.865	141.72	80.7372	305.264	42.7916	193.408	11.704	167.762	58.6226	351.291
91493	30.6565	189.294	50.7266	198.076	34.2061	137.732	80.0182	142.84	80.5362	304.367	42.7468	193.741	11.721	168.015	58.5915	350.818
91494	30.6318	189.582	50.6598	198.453	34.3359	137.988	80.1674	143.994	80.3332	303.506	42.7009	194.073	11.7378	168.268	58.5589	350.346
91495	30.6063	189.869	50.5917	198.83	34.465	138.245	80.3124	145.184	80.1281	302.68	42.6538	194.405	11.7542	168.521	58.5246	349.875
91496	30.58	190.156	50.5223	199.205	34.5934	138.503	80.4532	146.409	79.9212	301.886	42.6057	194.736	11.7702	168.774	58.4888	349.404
91497	30.553	190.443	50.4515	199.58	34.7212	138.762	80.5894	147.67	79.7125	301.124	42.5566	195.067	11.7859	169.027	58.4513	348.934
91498	30.5252	190.729	50.3794	199.953	34.8483	139.022	80.7209	148.968	79.5022	300.391	42.5063	195.397	11.8013	169.281	58.4123	348.466
91499	30.4967	191.016	50.306	200.325	34.9748	139.282	80.8475	150.302	79.2903	299.687	42.455	195.727	11.8163	169.534	58.3716	347.998
91500	30.4674	191.302	50.2313	200.695	35.1006	139.544	80.969	151.674	79.077	299.008	42.4027	196.055	11.8309	169.787	58.3294	347.532
91501	30.4374	191.588	50.1553	201.065	35.2258	139.806	81.0851	153.081	78.8623	298.355	42.3492	196.384	11.8453	170.041	58.2856	347.066
91502	30.4066	191.874	50.078	201.433	35.3502	140.07	81.1957	154.526	78.6463	297.726	42.2948	196.712	11.8592	170.294	58.2403	346.602
91503	30.3752	192.159	49.9995	201.8	35.474	140.334	81.3006	156.006	78.429	297.12	42.2392	197.039	11.8728	170.548	58.1934	346.139
91504	30.3429	192.445	49.9196	202.165	35.5971	140.599	81.3995	157.521	78.2107	296.535	42.1826	197.365	11.8861	170.801	58.1449	345.677
91505	30.3099	192.73	49.8385	202.53	35.7195	140.865	81.4922	159.07	77.9912	295.971	42.125	197.691	11.899	171.054	58.0949	345.216
91506	30.2762	193.015	49.7562	202.893	35.8412	141.132	81.5785	160.653	77.7707	295.426	42.0663	198.017	11.9116	171.308	58.0434	344.757
91507	30.2417	193.3	49.6726	203.255	35.9622	141.4	81.6582	162.266	77.5492	294.9	42.0066	198.341	11.9238	171.561	57.9903	344.299
91508	30.2065	193.584	49.5878	203.615	36.0825	141.668	81.7312	163.91	77.3268	294.392	41.9459	198.665	11.9356	171.815	57.9357	343.842
91509	30.1705	193.869	49.5017	203.974	36.2021	141.938	81.7973	165.582	77.1035	293.9	41.8841	198.989	11.9471	172.069	57.8796	343.386
91510	30.1338	194.153	49.4144	204.332	36.321	142.208	81.8562	167.279	76.8793	293.424	41.8213	199.311	11.9583	172.322	57.822	342.932
91511	30.0964	194.437	49.3259	204.688	36.4392	142.48	81.9078	169	76.6544	292.963	41.7575	199.633	11.9691	172.576	57.7629	342.48
91512	30.0583	194.72	49.2362	205.043	36.5566	142.752	81.952	170.741	76.4287	292.517	41.6927	199.955	11.9795	172.83	57.7024	342.028
91513	30.0194	195.004	49.1453	205.397	36.6733	143.025	81.9887	172.5	76.2023	292.085	41.6268	200.275	11.9896	173.083	57.6403	341.579
91514	29.9798	195.287	49.0532	205.749	36.7893	143.299	82.0178	174.273	75.9753	291.666	41.56	200.595	11.9994	173.337	57.5768	341.13
91515	29.9395	195.57	48.9599	206.1	36.9045	143.574	82.0391	176.058	75.7475	291.26	41.4921	200.914	12.0088	173.591	57.5118	340.684
91516	29.8984	195.853	48.8654	206.45	37.0189	143.85	82.0527	177.85	75.5192	290.866	41.4233	201.233	12.0178	173.845	57.4453	340.238
91517	29.8566	196.135	48.7698	206.798	37.1327	144.127	82.0584	179.647	75.2903	290.483	41.3534	201.55	12.0265	174.099	57.3774	339.795
91518	29.8141	196.417	48.673	207.145	37.2456	144.405	82.0563	181.445	75.0608	290.112	41.2826	201.868	12.0348	174.352	57.3081	339.353
91519	29.7709	196.699	48.5751	207.49	37.3578	144.683	82.0464	183.24	74.8307	289.751	41.2108	202.184	12.0428	174.606	57.2373	338.912
91520	29.7269	196.981	48.476	207.834	37.4693	144.963	82.0286	185.028	74.6002	289.4	41.138	202.499	12.0504	174.86	57.1651	338.474
91521	29.6823	197.262	48.3758	208.177	37.58	145.243	82.0031	186.807	74.3692	289.059	41.0642	202.814	12.0577	175.114	57.0916	338.036
91522	29.6369	197.543	48.2745	208.518	37.6898	145.524	81.9699	188.573	74.1377	288.727	40.9894	203.128	12.0646	175.368	57.0166	337.601
91523	29.5908	197.824	48.172	208.857	37.799	145.806	81.9291	190.323	73.9057	288.404	40.9137	203.441	12.0712	175.622	56.9402	337.167
91524	29.544	198.104	48.0684	209.196	37.9073	146.089	81.8809	192.053	73.6734	288.089	40.837	203.754	12.0774	175.876	56.8625	336.735
91525	29.4965	198.384	47.9638	209.533	38.0148	146.374	81.8253	193.762	73.4406	287.783	40.7594	204.065	12.0833	176.13	56.7834	336.305
91526	29.4482	198.664	47.858	209.868	38.1215	146.658	81.7625	195.446	73.2074	287.485	40.6808	204.376	12.0888	176.384	56.7029	335.876
91527	29.3993	198.944	47.7512	210.202	38.2275	146.944	81.6928	197.103	72.9738	287.194	40.6012	204.686	12.0939	176.638	56.6211	335.45
91528	29.3497	199.223	47.6433	210.534	38.3326	147.231	81.6161	198.731	72.7399	286.91	40.5207	204.996	12.0987	176.892	56.5379	335.024
91529	29.2993	199.502	47.5343	210.865	38.4369	147.518	81.5328	200.328	72.5057	286.633	40.4393	205.304	12.1032	177.146	56.4534	334.601
91530	29.2483	199.781	47.4242	211.195	38.5404	147.807	81.443	201.892	72.2711	286.363	40.3569	205.612	12.1073	177.4	56.3676	334.18
91531	29.1966	200.059	47.3132	211.523	38.6431	148.096	81.3469	203.423	72.0362	286.1	40.2736	205.919	12.111	177.654	56.2805	333.76
91532	29.1441	200.337	47.201	211.849	38.7449	148.387	81.2448	204.92	71.8009	285.843	40.1894	206.225	12.1143	177.908	56.1921	333.343
91533	29.091	200.615	47.0878	212.174	38.8459	148.678	81.1368	206.381	71.5654	285.591	40.1043	206.53	12.1174	178.162	56.1024	332.927
91534	29.0372	200.893	46.9736	212.498	38.9461	148.97	81.0232	207.805	71.3296	285.346	40.0182	206.835	12.12	178.416	56.0115	332.513
91535	28.9827	201.17	46.8584	212.82	39.0454	149.263	80.9042	209.194	71.0935	285.106	39.9312	207.138	12.1223	178.67	55.9192	332.101
91536	28.9275	201.446	46.7422	213.141	39.1439	149.556	80.7799	210.545	70.8572	284.871	39.8433	207.441	12.1243	178.924	55.8258	331.691
91537	28.8716	201.723	46.625	213.46	39.2415	149.851	80.6506	211.86	70.6206	284.642	39.7546	207.743	12.1259	179.178	55.731	331.282
91538	28.815	201.999	46.5068	213.778	39.3383	150.147	80.5166	213.138	70.3838	284.417	39.6649	208.044	12.1271	179.432	55.6351	330.876
91539	28.7578	202.275	46.3876	214.094	39.4342	150.443	80.3779	214.38	70.1467	284.197	39.5743	208.345	12.128	179.686	55.5379	330.471
91540	28.6999	202.55	46.2674	214.409	39.5292	150.74	80.2348	215.585	69.9094	283.982	39.4829	208.644	12.1286	179.94	55.4395	330.069
91541	28.6412	202.826	46.1462	214.722	39.6233	151.039	80.0875	216.756	69.6719	283.772	39.3905	208.943	12.1287	180.194	55.3399	329.668
91542	28.582	203.1	46.0241	215.034	39.7166	151.338	79.9361	217.892	69.4342	283.565	39.2973	209.24	12.1285	180.448	55.2391	329.269
91543	28.522	203.375	45.9011	215.345	39.809	151.638	79.7809	218.993	69.1962	283.363	39.2033	209.537	12.128	180.702	55.1371	328.873
91544	28.4614	203.649	45.7771	215.654	39.9005	151.939	79.622	220.061	68.9581	283.165	39.1083	209.833	12.1271	180.956	55.034	328.478
91545	28.4001	203.923	45.6521	215.961	39.9911	152.24	79.4596	221.096	68.7198	282.971	39.0125	210.129	12.1259	181.21	54.9297	328.085
91546	28.3381	204.196	45.5263	216.267	40.0808	152.543	79.2938	222.1	68.4813	282.781	38.9159	210.423	12.1243	181.464	54.8242	327.694
91547	28.2755	204.469	45.3995	216.572	40.1696	152.846	79.1249	223.073	68.2426	282.594	38.8184	210.716	12.1223	181.719	54.7177	327.305
91548	28.2122	204.742	45.2718	216.875	40.2575	153.15	78.9529	224.015	68.0037	282.411	38.72	211.009	12.12	181.973	54.6099	326.918
91549	28.1483	205.014	45.1432	217.177	40.3445	153.455	78.7779	224.928	67.7647	282.231	38.6208	211.301	12.1173	182.227	54.5011	326.533
91550	28.0837	205.286	45.0137	217.477	40.4305	153.761	78.6002	225.813	67.5256	282.055	38.5208	211.591	12.1143	182.481	54.3912	326.15
91551	28.0184	205.558	44.8833	217.776	40.5156	154.068	78.4198	226.671	67.2862	281.882	38.4199	211.881	12.1109	182.735	54.2801	325.769
91552	27.9525	205.829	44.752	218.073	40.5998	154.376	78.237	227.502	67.0468	281.712	38.3182	212.17	12.1072	182.989	54.168	325.39
91553	27.886	206.1	44.6199	218.369	40.6831	154.684	78.0516	228.307	66.8071	281.545	38.2157	212.459	12.1031	183.243	54.0548	325.012
91554	27.8188	206.37	44.4869	218.663	40.7654	154.993	77.864	229.087	66.5674	281.38	38.1124	212.746	12.0987	183.497	53.9406	324.637
91555	27.7509	206.64	44.3531	218.956	40.8468	155.303	77.6742	229.844	66.3274	281.219	38.0083	213.032	12.0939	183.751	53.8253	324.264
91556	27.6824	206.91	44.2183	219.248	40.9272	155.614	77.4823	230.577	66.0874	281.061	37.9033	213.318	12.0887	184.005	53.7089	323.893
91557	27.6133	207.179	44.0828	219.538	41.0067	155.926	77.2884	231.288	65.8473	280.905	37.7976	213.603	12.0832	184.259	53.5915	323.523
91558	27.5435	207.448	43.9464	219.827	41.0852	156.238	77.0926	231.977	65.607	280.752	37.6911	213.886	12.0773	184.513	53.4731	323.156
91559	27.4731	207.717	43.8092	220.114	41.1627	156.552	76.8949	232.646	65.3666	280.601	37.5838	214.169	12.0711	184.767	53.3537	322.79
91560	27.4021	207.985	43.6712	220.4	41.2393	156.866	76.6955	233.294	65.126	280.453	37.4757	214.451	12.0646	185.02	53.2333	322.427
91561	27.3304	208.253	43.5323	220.684	41.3149	157.18	76.4945	233.923	64.8854	280.307	37.3668	214.732	12.0576	185.274	53.1119	322.065
91562	27.2581	208.52	43.3927	220.967	41.3895	157.496	76.2918	234.534	64.6446	280.163	37.2571	215.013	12.0504	185.528	52.9895	321.706
91563	27.1852	208.787	43.2522	221.249	41.4632	157.812	76.0876	235.127	64.4038	280.022	37.1467	215.292	12.0427	185.782	52.8661	321.348
91564	27.1116	209.054	43.111	221.529	41.5358	158.13	75.882	235.702	64.1628	279.883	37.0355	215.571	12.0348	186.036	52.7418	320.992
91565	27.0374	209.32	42.969	221.808	41.6075	158.447	75.6749	236.261	63.9218	279.746	36.9235	215.848	12.0264	186.29	52.6165	320.639
91566	26.9627	209.586	42.8262	222.085	41.6782	158.766	75.4666	236.803	63.6806	279.611	36.8109	216.125	12.0177	186.544	52.4903	320.287
91567	26.8873	209.851	42.6827	222.362	41.7478	159.085	75.2569	237.331	63.4393	279.478	36.6974	216.401	12.0087	186.798	52.3631	319.937
91568	26.8112	210.117	42.5383	222.636	41.8165	159.406	75.046	237.843	63.198	279.347	36.5832	216.676	11.9993	187.051	52.235	319.589
91569	26.7346	210.381	42.3933	222.91	41.8841	159.726	74.834	238.341	62.9566	279.218	36.4683	216.95	11.9895	187.305	52.1061	319.243
91570	26.6574	210.645	42.2475	223.182	41.9508	160.048	74.6208	238.825	62.715	279.09	36.3526	217.223	11.9794	187.559	51.9762	318.898
91571	26.5795	210.909	42.1009	223.452	42.0164	160.37	74.4065	239.295	62.4734	278.965	36.2362	217.495	11.969	187.812	51.8454	318.556
91572	26.5011	211.173	41.9536	223.722	42.081	160.693	74.1912	239.753	62.2317	278.841	36.1191	217.767	11.9582	188.066	51.7137	318.215
91573	26.422	211.436	41.8056	223.99	42.1445	161.017	73.9749	240.199	61.99	278.719	36.0012	218.037	11.947	188.32	51.5812	317.877
91574	26.3424	211.699	41.6569	224.256	42.2071	161.341	73.7577	240.632	61.7481	278.599	35.8827	218.307	11.9355	188.573	51.4478	317.54
91575	26.2622	211.961	41.5074	224.522	42.2686	161.666	73.5395	241.054	61.5062	278.48	35.7634	218.575	11.9237	188.827	51.3135	317.205
91576	26.1813	212.223	41.3573	224.786	42.329	161.992	73.3204	241.465	61.2642	278.363	35.6434	218.843	11.9115	189.081	51.1784	316.872
91577	26.0999	212.484	41.2064	225.048	42.3884	162.319	73.1006	241.865	61.0221	278.248	35.5228	219.11	11.8989	189.334	51.0424	316.541
91578	26.0179	212.745	41.0549	225.31	42.4468	162.645	72.8799	242.255	60.78	278.134	35.4014	219.376	11.886	189.588	50.9057	316.212
91579	25.9353	213.006	40.9027	225.57	42.5041	162.973	72.6584	242.634	60.5378	278.021	35.2794	219.642	11.8727	189.841	50.7681	315.884
91580	25.8522	213.266	40.7498	225.828	42.5604	163.302	72.4361	243.004	60.2955	277.91	35.1566	219.906	11.8591	190.095	50.6297	315.559
91581	25.7684	213.526	40.5962	226.086	42.6155	163.631	72.2131	243.365	60.0532	277.8	35.0332	220.169	11.8452	190.348	50.4905	315.235
91582	25.6841	213.785	40.4419	226.342	42.6697	163.96	71.9895	243.716	59.8107	277.692	34.9091	220.432	11.8309	190.601	50.3505	314.913
91583	25.5992	214.044	40.2871	226.597	42.7227	164.29	71.7651	244.059	59.5683	277.585	34.7844	220.694	11.8162	190.855	50.2097	314.592
91584	25.5137	214.303	40.1315	226.85	42.7747	164.621	71.5401	244.394	59.3258	277.479	34.6589	220.955	11.8012	191.108	50.0682	314.274
91585	25.4277	214.561	39.9753	227.103	42.8257	164.952	71.3145	244.72	59.0832	277.374	34.5329	221.215	11.7858	191.361	49.9259	313.957
91586	25.341	214.818	39.8185	227.354	42.8755	165.284	71.0883	245.039	58.8405	277.271	34.4061	221.474	11.7701	191.614	49.7828	313.642
91587	25.2539	215.076	39.661	227.604	42.9242	165.617	70.8615	245.35	58.5978	277.169	34.2787	221.732	11.7541	191.868	49.639	313.329
91588	25.1661	215.333	39.5029	227.852	42.9719	165.95	70.6342	245.653	58.3551	277.068	34.1507	221.99	11.7377	192.121	49.4944	313.017
91589	25.0779	215.589	39.3442	228.1	43.0185	166.283	70.4063	245.949	58.1123	276.968	34.022	222.246	11.721	192.374	49.3491	312.708
91590	24.989	215.845	39.1848	228.346	43.064	166.617	70.1779	246.239	57.8694	276.87	33.8927	222.502	11.7039	192.627	49.2031	312.4
91591	24.8996	216.101	39.0249	228.591	43.1084	166.952	69.9489	246.522	57.6265	276.772	33.7627	222.757	11.6865	192.88	49.0564	312.093
91592	24.8097	216.356	38.8643	228.834	43.1517	167.287	69.7195	246.798	57.3836	276.676	33.6322	223.011	11.6687	193.133	48.9089	311.789
91593	24.7192	216.611	38.7032	229.077	43.1938	167.623	69.4896	247.068	57.1406	276.58	33.501	223.264	11.6506	193.386	48.7608	311.486
91594	24.6281	216.865	38.5414	229.318	43.2349	167.959	69.2593	247.332	56.8976	276.486	33.3691	223.516	11.6321	193.639	48.612	311.184
91595	24.5366	217.119	38.3791	229.559	43.2749	168.296	69.0285	247.59	56.6545	276.393	33.2367	223.768	11.6133	193.892	48.4625	310.885
91596	24.4444	217.373	38.2162	229.797	43.3138	168.633	68.7973	247.843	56.4113	276.3	33.1037	224.018	11.5942	194.145	48.3123	310.587
91597	24.3518	217.625	38.0527	230.035	43.3515	168.97	68.5657	248.09	56.1682	276.209	32.9701	224.268	11.5747	194.398	48.1615	310.291
91598	24.2586	217.878	37.8886	230.272	43.3882	169.308	68.3337	248.332	55.9249	276.118	32.8358	224.517	11.5548	194.65	48.0099	309.996
91599	24.1649	218.131	37.724	230.507	43.4237	169.647	68.1013	248.568	55.6817	276.029	32.701	224.765	11.5346	194.903	47.8578	309.703
91600	24.0706	218.382	37.5588	230.742	43.4581	169.985	67.8685	248.799	55.4384	275.94	32.5656	225.012	11.5141	195.156	47.705	309.411
91601	23.9758	218.634	37.3931	230.975	43.4913	170.325	67.6354	249.026	55.1951	275.852	32.4295	225.259	11.4933	195.408	47.5515	309.121
91602	23.8805	218.885	37.2268	231.207	43.5235	170.664	67.4019	249.248	54.9517	275.765	32.2929	225.505	11.4721	195.661	47.3975	308.833
91603	23.7847	219.135	37.06	231.438	43.5545	171.004	67.1681	249.465	54.7083	275.679	32.1558	225.749	11.4505	195.913	47.2428	308.546
91604	23.6884	219.385	36.8927	231.668	43.5844	171.344	66.9339	249.677	54.4648	275.594	32.018	225.994	11.4286	196.166	47.0875	308.261
91605	23.5915	219.635	36.7248	231.896	43.6131	171.685	66.6994	249.886	54.2213	275.509	31.8797	226.237	11.4064	196.418	46.9315	307.978
91606	23.4942	219.884	36.5564	232.124	43.6407	172.026	66.4647	250.09	53.9778	275.425	31.7408	226.479	11.3839	196.67	46.775	307.695
91607	23.3963	220.133	36.3874	232.35	43.6672	172.368	66.2296	250.29	53.7343	275.342	31.6014	226.721	11.361	196.923	46.6179	307.415
91608	23.2979	220.382	36.218	232.576	43.6926	172.709	65.9942	250.486	53.4907	275.26	31.4614	226.961	11.3377	197.175	46.4602	307.136
91609	23.199	220.63	36.048	232.8	43.7167	173.051	65.7585	250.678	53.2471	275.179	31.3209	227.201	11.3142	197.427	46.3019	306.858
91610	23.0997	220.877	35.8775	233.023	43.7398	173.393	65.5226	250.867	53.0034	275.098	31.1798	227.44	11.2903	197.679	46.1431	306.582
91611	22.9998	221.125	35.7066	233.245	43.7617	173.736	65.2864	251.051	52.7597	275.018	31.0382	227.679	11.266	197.931	45.9837	306.308
91612	22.8994	221.371	35.5351	233.467	43.7825	174.079	65.0499	251.232	52.516	274.939	30.896	227.916	11.2414	198.183	45.8237	306.035
91613	22.7985	221.618	35.3632	233.687	43.8021	174.422	64.8132	251.41	52.2723	274.86	30.7533	228.153	11.2165	198.435	45.6632	305.763
91614	22.6972	221.863	35.1907	233.906	43.8205	174.765	64.5762	251.585	52.0286	274.782	30.6101	228.389	11.1913	198.687	45.5021	305.493
91615	22.5953	222.109	35.0178	234.124	43.8378	175.108	64.339	251.756	51.7848	274.705	30.4663	228.625	11.1657	198.939	45.3405	305.224
91616	22.493	222.354	34.8444	234.341	43.854	175.452	64.1016	251.923	51.5409	274.628	30.3221	228.859	11.1397	199.191	45.1783	304.957
91617	22.3902	222.599	34.6705	234.557	43.869	175.796	63.8639	252.088	51.2971	274.552	30.1773	229.093	11.1135	199.443	45.0156	304.691
91618	22.2869	222.843	34.4962	234.772	43.8828	176.14	63.626	252.25	51.0532	274.476	30.0319	229.326	11.0869	199.694	44.8524	304.426
91619	22.1831	223.087	34.3214	234.986	43.8955	176.484	63.3879	252.409	50.8093	274.401	29.8861	229.558	11.06	199.946	44.6887	304.163
91620	22.0788	223.33	34.1461	235.199	43.907	176.829	63.1496	252.565	50.5654	274.327	29.7398	229.789	11.0328	200.198	44.5245	303.901
91621	21.9741	223.573	33.9704	235.411	43.9174	177.173	62.9111	252.718	50.3215	274.253	29.593	230.02	11.0052	200.449	44.3598	303.641
91622	21.8689	223.816	33.7943	235.621	43.9266	177.518	62.6724	252.868	50.0775	274.18	29.4457	230.25	10.9773	200.701	44.1946	303.382
91623	21.7633	224.058	33.6177	235.832	43.9346	177.863	62.4335	253.016	49.8335	274.108	29.2979	230.479	10.949	200.952	44.0289	303.124
91624	21.6572	224.3	33.4406	236.041	43.9415	178.207	62.1944	253.161	49.5895	274.036	29.1496	230.707	10.9205	201.203	43.8627	302.867
91625	21.5506	224.541	33.2631	236.249	43.9473	178.552	61.9552	253.304	49.3455	273.964	29.0008	230.935	10.8916	201.455	43.696	302.612
91626	21.4436	224.782	33.0852	236.456	43.9518	178.897	61.7157	253.444	49.1014	273.893	28.8515	231.161	10.8624	201.706	43.5288	302.358
91627	21.3361	225.023	32.9069	236.662	43.9552	179.242	61.4761	253.582	48.8574	273.823	28.7018	231.388	10.8328	201.957	43.3612	302.106
91628	21.2281	225.263	32.7281	236.867	43.9575	179.587	61.2363	253.717	48.6133	273.753	28.5516	231.613	10.803	202.208	43.1931	301.855
91629	21.1197	225.502	32.5489	237.072	43.9586	179.932	60.9963	253.85	48.3692	273.683	28.4009	231.838	10.7728	202.459	43.0246	301.605
91630	21.0109	225.742	32.3693	237.275	43.9585	180.277	60.7562	253.981	48.125	273.614	28.2497	232.062	10.7422	202.71	42.8556	301.356
91631	20.9016	225.981	32.1893	237.477	43.9572	180.623	60.516	254.109	47.8809	273.546	28.0981	232.285	10.7114	202.961	42.6862	301.108
91632	20.7919	226.219	32.0089	237.679	43.9548	180.968	60.2755	254.236	47.6367	273.477	27.9461	232.507	10.6802	203.212	42.5163	300.862
91633	20.6817	226.457	31.8281	237.88	43.9512	181.313	60.035	254.36	47.3925	273.41	27.7935	232.729	10.6487	203.462	42.346	300.617
91634	20.5711	226.695	31.6469	238.08	43.9465	181.657	59.7942	254.483	47.1483	273.343	27.6406	232.95	10.6169	203.713	42.1753	300.373
91635	20.4601	226.932	31.4653	238.279	43.9406	182.002	59.5534	254.603	46.9041	273.276	27.4871	233.171	10.5848	203.964	42.0041	300.131
91636	20.3486	227.169	31.2833	238.477	43.9335	182.347	59.3124	254.721	46.6599	273.209	27.3333	233.391	10.5524	204.214	41.8325	299.889
91637	20.2367	227.405	31.1009	238.674	43.9253	182.692	59.0712	254.838	46.4156	273.144	27.179	233.609	10.5196	204.465	41.6606	299.649
91638	20.1244	227.642	30.9182	238.87	43.916	183.036	58.83	254.953	46.1714	273.078	27.0242	233.828	10.4865	204.715	41.4881	299.41
91639	20.0116	227.877	30.735	239.066	43.9054	183.381	58.5886	255.065	45.9271	273.013	26.8691	234.045	10.4531	204.965	41.3153	299.172
91640	19.8985	228.113	30.5515	239.26	43.8937	183.725	58.3471	255.177	45.6828	272.948	26.7135	234.262	10.4193	205.215	41.1421	298.935
91641	19.7849	228.347	30.3676	239.454	43.8809	184.07	58.1054	255.286	45.4385	272.884	26.5575	234.479	10.3853	205.466	40.9685	298.7
91642	19.6709	228.582	30.1834	239.647	43.8669	184.414	57.8636	255.394	45.1942	272.82	26.401	234.694	10.3509	205.716	40.7945	298.465
91643	19.5564	228.816	29.9988	239.839	43.8517	184.757	57.6218	255.5	44.9498	272.757	26.2442	234.909	10.3163	205.966	40.6202	298.232
91644	19.4416	229.05	29.8138	240.03	43.8354	185.101	57.3798	255.604	44.7055	272.693	26.0869	235.123	10.2813	206.216	40.4454	297.999
91645	19.3264	229.283	29.6285	240.221	43.8179	185.445	57.1377	255.707	44.4611	272.631	25.9292	235.337	10.246	206.466	40.2703	297.768
91646	19.2107	229.516	29.4428	240.411	43.7993	185.788	56.8954	255.808	44.2167	272.568	25.7711	235.55	10.2104	206.715	40.0948	297.538
91647	19.0947	229.748	29.2567	240.599	43.7795	186.131	56.6531	255.908	43.9724	272.506	25.6126	235.762	10.1744	206.965	39.9189	297.309
91648	18.9783	229.981	29.0704	240.787	43.7586	186.474	56.4106	256.006	43.728	272.444	25.4537	235.974	10.1382	207.215	39.7427	297.081
91649	18.8614	230.212	28.8836	240.975	43.7366	186.816	56.1681	256.103	43.4836	272.383	25.2944	236.185	10.1016	207.464	39.5661	296.854
91650	18.7442	230.444	28.6966	241.161	43.7133	187.158	55.9255	256.198	43.2392	272.322	25.1347	236.395	10.0648	207.714	39.3892	296.628
91651	18.6266	230.675	28.5092	241.347	43.689	187.5	55.6827	256.292	42.9947	272.261	24.9747	236.605	10.0276	207.964	39.2119	296.403
91652	18.5085	230.905	28.3214	241.532	43.6635	187.842	55.4399	256.384	42.7503	272.201	24.8142	236.814	9.99012	208.213	39.0342	296.179
91653	18.3901	231.136	28.1334	241.716	43.6369	188.183	55.197	256.476	42.5058	272.14	24.6533	237.022	9.95234	208.462	38.8563	295.957
91654	18.2713	231.365	27.945	241.9	43.6091	188.524	54.9539	256.565	42.2614	272.081	24.4921	237.23	9.91425	208.711	38.678	295.735
91655	18.1522	231.595	27.7563	242.083	43.5802	188.865	54.7108	256.654	42.0169	272.021	24.3305	237.437	9.87585	208.96	38.4993	295.514
91656	18.0326	231.824	27.5672	242.264	43.5501	189.205	54.4676	256.741	41.7724	271.962	24.1685	237.644	9.83714	209.209	38.3204	295.294
91657	17.9127	232.053	27.3779	242.446	43.5189	189.545	54.2243	256.827	41.5279	271.903	24.0062	237.85	9.79814	209.458	38.1411	295.075
91658	17.7924	232.281	27.1882	242.626	43.4866	189.885	53.9809	256.912	41.2835	271.844	23.8435	238.055	9.75883	209.707	37.9615	294.857
91659	17.6717	232.509	26.9983	242.806	43.4532	190.224	53.7375	256.996	41.039	271.786	23.6804	238.26	9.71921	209.956	37.7815	294.64
91660	17.5507	232.737	26.808	242.985	43.4186	190.563	53.4939	257.079	40.7944	271.728	23.5169	238.464	9.6793	210.205	37.6013	294.424
91661	17.4293	232.964	26.6174	243.164	43.383	190.901	53.2503	257.16	40.5499	271.67	23.3531	238.668	9.63908	210.454	37.4207	294.209
91662	17.3075	233.191	26.4265	243.341	43.3462	191.239	53.0066	257.24	40.3054	271.612	23.189	238.871	9.59857	210.702	37.2399	293.995
91663	17.1853	233.417	26.2354	243.518	43.3083	191.576	52.7628	257.319	40.0609	271.555	23.0245	239.073	9.55775	210.951	37.0588	293.781
91664	17.0629	233.643	26.0439	243.695	43.2692	191.913	52.5189	257.397	39.8163	271.498	22.8596	239.275	9.51664	211.199	36.8773	293.569
91665	16.94	233.869	25.8521	243.87	43.2291	192.25	52.275	257.474	39.5718	271.441	22.6944	239.476	9.47523	211.447	36.6956	293.358
91666	16.8168	234.095	25.6601	244.045	43.1879	192.586	52.031	257.55	39.3272	271.384	22.5289	239.677	9.43352	211.696	36.5136	293.147
91667	16.6932	234.32	25.4677	244.22	43.1455	192.921	51.7869	257.625	39.0827	271.328	22.363	239.877	9.39152	211.944	36.3312	292.937
91668	16.5693	234.544	25.2751	244.393	43.1021	193.256	51.5428	257.699	38.8381	271.272	22.1968	240.077	9.34923	212.192	36.1487	292.728
91669	16.445	234.769	25.0822	244.566	43.0575	193.591	51.2986	257.772	38.5936	271.216	22.0302	240.275	9.30663	212.44	35.9658	292.521
91670	16.3205	234.993	24.8891	244.738	43.0119	193.925	51.0543	257.844	38.349	271.16	21.8633	240.474	9.26375	212.688	35.7826	292.313
91671	16.1955	235.216	24.6956	244.91	42.9652	194.259	50.81	257.915	38.1044	271.105	21.6961	240.672	9.22058	212.936	35.5992	292.107
91672	16.0702	235.44	24.5019	245.081	42.9173	194.592	50.5655	257.986	37.8598	271.049	21.5286	240.869	9.17711	213.184	35.4155	291.902
91673	15.9446	235.663	24.3079	245.252	42.8684	194.924	50.3211	258.055	37.6153	270.994	21.3607	241.066	9.13335	213.431	35.2316	291.697
91674	15.8186	235.885	24.1136	245.421	42.8185	195.256	50.0765	258.123	37.3707	270.94	21.1925	241.262	9.08931	213.679	35.0474	291.493
91675	15.6923	236.107	23.9191	245.59	42.7674	195.587	49.8319	258.19	37.1261	270.885	21.024	241.458	9.04497	213.926	34.8629	291.29
91676	15.5657	236.329	23.7243	245.759	42.7152	195.918	49.5873	258.257	36.8815	270.831	20.8552	241.653	9.00035	214.174	34.6782	291.088
91677	15.4388	236.551	23.5293	245.927	42.662	196.248	49.3425	258.323	36.6369	270.776	20.6861	241.847	8.95544	214.421	34.4932	290.887
91678	15.3115	236.772	23.334	246.094	42.6078	196.577	49.0978	258.388	36.3923	270.722	20.5167	242.042	8.91025	214.668	34.308	290.686
91679	15.1839	236.993	23.1384	246.261	42.5524	196.906	48.8529	258.452	36.1477	270.668	20.3469	242.235	8.86477	214.916	34.1226	290.486
91680	15.056	237.214	22.9426	246.427	42.496	197.235	48.608	258.515	35.9031	270.615	20.1769	242.428	8.81901	215.163	33.9369	290.287
91681	14.9278	237.434	22.7466	246.593	42.4386	197.562	48.3631	258.577	35.6585	270.561	20.0066	242.621	8.77297	215.41	33.7509	290.089
91682	14.7992	237.654	22.5503	246.758	42.3801	197.889	48.1181	258.639	35.4138	270.508	19.8359	242.813	8.72664	215.657	33.5648	289.891
91683	14.6703	237.874	22.3538	246.922	42.3205	198.215	47.873	258.7	35.1692	270.455	19.665	243.004	8.68004	215.904	33.3784	289.694
91684	14.5412	238.093	22.157	247.086	42.2599	198.541	47.6279	258.76	34.9246	270.402	19.4938	243.195	8.63315	216.15	33.1917	289.498
91685	14.4117	238.312	21.96	247.249	42.1983	198.866	47.3828	258.82	34.68	270.349	19.3223	243.386	8.58598	216.397	33.0049	289.302
91686	14.2819	238.531	21.7627	247.412	42.1356	199.19	47.1376	258.878	34.4354	270.297	19.1505	243.576	8.53854	216.643	32.8178	289.108
91687	14.1518	238.749	21.5652	247.574	42.0719	199.514	46.8923	258.936	34.1908	270.244	18.9784	243.766	8.49082	216.89	32.6305	288.914
91688	14.0214	238.967	21.3675	247.736	42.0072	199.837	46.647	258.993	33.9461	270.192	18.806	243.955	8.44283	217.137	32.443	288.721
91689	13.8907	239.185	21.1696	247.897	41.9414	200.159	46.4017	259.05	33.7015	270.14	18.6334	244.143	8.39456	217.383	32.2552	288.528
91690	13.7597	239.402	20.9714	248.058	41.8747	200.481	46.1563	259.106	33.4569	270.088	18.4605	244.331	8.34601	217.629	32.0673	288.336
91691	13.6284	239.619	20.773	248.218	41.8069	200.801	45.9108	259.161	33.2123	270.036	18.2873	244.519	8.29719	217.875	31.8791	288.145
91692	13.4969	239.836	20.5744	248.377	41.7381	201.121	45.6653	259.216	32.9676	269.984	18.1138	244.706	8.2481	218.121	31.6908	287.954
91693	13.365	240.052	20.3756	248.536	41.6683	201.441	45.4198	259.27	32.723	269.933	17.9401	244.893	8.19874	218.367	31.5022	287.764
91694	13.2328	240.268	20.1765	248.695	41.5975	201.759	45.1742	259.323	32.4784	269.881	17.7661	245.079	8.14911	218.613	31.3135	287.575
91695	13.1004	240.484	19.9772	248.852	41.5257	202.077	44.9286	259.375	32.2338	269.83	17.5919	245.265	8.09922	218.859	31.1245	287.386
91696	12.9677	240.7	19.7778	249.01	41.4529	202.394	44.6829	259.428	31.9892	269.779	17.4173	245.451	8.04905	219.105	30.9354	287.199
91697	12.8347	240.915	19.5781	249.167	41.3792	202.71	44.4372	259.479	31.7445	269.728	17.2426	245.636	7.99862	219.35	30.7461	287.011
91698	12.7014	241.13	19.3782	249.323	41.3044	203.026	44.1915	259.53	31.4999	269.677	17.0675	245.82	7.94792	219.596	30.5565	286.825
91699	12.5678	241.345	19.1781	249.479	41.2287	203.341	43.9457	259.58	31.2553	269.626	16.8923	246.004	7.89695	219.841	30.3668	286.638
91700	12.434	241.559	18.9778	249.635	41.152	203.655	43.6999	259.63	31.0107	269.575	16.7167	246.188	7.84572	220.087	30.1769	286.453
91701	12.2999	241.773	18.7772	249.79	41.0743	203.968	43.454	259.679	30.7661	269.525	16.5409	246.371	7.79423	220.332	29.9868	286.268
91702	12.1655	241.987	18.5765	249.944	40.9956	204.28	43.2081	259.727	30.5215	269.474	16.3649	246.554	7.74248	220.577	29.7966	286.084
91703	12.0308	242.201	18.3756	250.099	40.9161	204.592	42.9622	259.775	30.2768	269.424	16.1886	246.736	7.69047	220.822	29.6061	285.9
91704	11.8959	242.414	18.1745	250.252	40.8355	204.903	42.7162	259.822	30.0322	269.374	16.0121	246.918	7.6382	221.067	29.4155	285.717
91705	11.7608	242.627	17.9732	250.405	40.754	205.213	42.4702	259.869	29.7876	269.324	15.8354	247.1	7.58567	221.313	29.2248	285.535
91706	11.6253	242.839	17.7717	250.558	40.6716	205.522	42.2241	259.916	29.543	269.274	15.6584	247.281	7.53288	221.557	29.0338	285.353
91707	11.4896	243.052	17.57	250.71	40.5882	205.83	41.978	259.962	29.2984	269.224	15.4811	247.461	7.47983	221.802	28.8427	285.171
91708	11.3537	243.264	17.3682	250.862	40.5039	206.138	41.7319	260.007	29.0538	269.174	15.3037	247.642	7.42653	222.047	28.6515	284.99
91709	11.2175	243.476	17.1661	251.013	40.4186	206.444	41.4858	260.051	28.8092	269.125	15.126	247.822	7.37298	222.292	28.46	284.81
91710	11.081	243.687	16.9639	251.164	40.3325	206.75	41.2396	260.096	28.5646	269.075	14.9481	248.001	7.31917	222.536	28.2684	284.63
91711	10.9443	243.899	16.7615	251.315	40.2454	207.055	40.9933	260.14	28.32	269.026	14.7699	248.18	7.26511	222.78	28.0767	284.451
91712	10.8074	244.11	16.5589	251.465	40.1574	207.359	40.7471	260.183	28.0755	268.976	14.5916	248.359	7.2108	223.025	27.8848	284.273
91713	10.6702	244.321	16.3561	251.614	40.0685	207.662	40.5008	260.226	27.8309	268.927	14.413	248.537	7.15624	223.269	27.6927	284.094
91714	10.5327	244.531	16.1531	251.764	39.9787	207.965	40.2545	260.268	27.5863	268.878	14.2342	248.715	7.10143	223.513	27.5005	283.917
91715	10.395	244.741	15.95	251.913	39.888	208.267	40.0081	260.31	27.3417	268.829	14.0551	248.893	7.04638	223.757	27.3082	283.74
91716	10.2571	244.951	15.7467	252.061	39.7964	208.567	39.7617	260.351	27.0972	268.779	13.8759	249.07	6.99107	224.001	27.1157	283.563
91717	10.1189	245.161	15.5432	252.209	39.7039	208.867	39.5153	260.392	26.8526	268.731	13.6965	249.247	6.93552	224.245	26.923	283.387
91718	9.98056	245.371	15.3396	252.357	39.6105	209.166	39.2689	260.433	26.608	268.682	13.5168	249.424	6.87973	224.489	26.7302	283.212
91719	9.84193	245.58	15.1358	252.504	39.5162	209.464	39.0224	260.473	26.3635	268.633	13.3369	249.6	6.82369	224.733	26.5373	283.036
91720	9.70308	245.789	14.9318	252.651	39.4211	209.762	38.7759	260.512	26.1189	268.584	13.1569	249.776	6.76741	224.977	26.3443	282.862
91721	9.56399	245.998	14.7277	252.797	39.3251	210.058	38.5294	260.552	25.8744	268.535	12.9766	249.951	6.71089	225.22	26.1511	282.688
91722	9.42468	246.206	14.5234	252.943	39.2283	210.353	38.2828	260.591	25.6298	268.487	12.7961	250.126	6.65413	225.464	25.9578	282.514
91723	9.28514	246.415	14.3189	253.089	39.1305	210.648	38.0362	260.629	25.3853	268.438	12.6154	250.301	6.59713	225.707	25.7643	282.341
91724	9.14538	246.623	14.1143	253.234	39.032	210.942	37.7896	260.667	25.1408	268.39	12.4345	250.476	6.53989	225.95	25.5707	282.168
91725	9.00541	246.831	13.9095	253.379	38.9325	211.235	37.543	260.704	24.8962	268.341	12.2535	250.65	6.48242	226.194	25.377	281.996
91726	8.86521	247.038	13.7046	253.524	38.8323	211.527	37.2963	260.741	24.6517	268.293	12.0722	250.824	6.42471	226.437	25.1832	281.824
91727	8.7248	247.246	13.4995	253.668	38.7312	211.818	37.0496	260.778	24.4072	268.245	11.8907	250.997	6.36676	226.68	24.9893	281.652
91728	8.58417	247.453	13.2943	253.812	38.6292	212.108	36.8029	260.815	24.1627	268.196	11.7091	251.17	6.30858	226.923	24.7952	281.481
91729	8.44334	247.66	13.0889	253.956	38.5265	212.397	36.5562	260.851	23.9182	268.148	11.5273	251.343	6.25017	227.166	24.601	281.311
91730	8.30229	247.867	12.8834	254.099	38.4229	212.685	36.3094	260.886	23.6737	268.1	11.3452	251.516	6.19153	227.409	24.4067	281.141
91731	8.16104	248.073	12.6777	254.242	38.3185	212.973	36.0626	260.921	23.4292	268.052	11.163	251.688	6.13266	227.651	24.2123	280.971
91732	8.01957	248.279	12.4719	254.384	38.2133	213.26	35.8158	260.956	23.1848	268.004	10.9806	251.86	6.07356	227.894	24.0178	280.802
91733	7.87791	248.485	12.2659	254.526	38.1073	213.545	35.5689	260.991	22.9403	267.956	10.7981	252.031	6.01423	228.137	23.8231	280.633
91734	7.73605	248.691	12.0598	254.668	38.0005	213.83	35.3221	261.025	22.6958	267.908	10.6153	252.202	5.95468	228.379	23.6284	280.464
91735	7.59398	248.897	11.8535	254.81	37.8928	214.114	35.0752	261.059	22.4514	267.86	10.4324	252.373	5.8949	228.622	23.4336	280.296
91736	7.45172	249.102	11.6471	254.951	37.7844	214.397	34.8283	261.092	22.2069	267.812	10.2493	252.544	5.8349	228.864	23.2386	280.128
91737	7.30927	249.308	11.4406	255.092	37.6752	214.679	34.5813	261.125	21.9625	267.764	10.0661	252.714	5.77467	229.106	23.0436	279.961
91738	7.16662	249.512	11.234	255.233	37.5653	214.96	34.3344	261.158	21.718	267.716	9.88261	252.885	5.71422	229.348	22.8484	279.794
91739	7.02378	249.717	11.0272	255.373	37.4545	215.241	34.0874	261.19	21.4736	267.668	9.69901	253.054	5.65355	229.59	22.6532	279.628
91740	6.88075	249.922	10.8202	255.513	37.343	215.52	33.8404	261.222	21.2292	267.62	9.51524	253.224	5.59266	229.833	22.4578	279.462
91741	6.73753	250.126	10.6132	255.653	37.2307	215.799	33.5934	261.254	20.9848	267.573	9.33131	253.393	5.53155	230.074	22.2624	279.296
91742	6.59413	250.331	10.406	255.792	37.1177	216.076	33.3463	261.285	20.7404	267.525	9.14721	253.562	5.47023	230.316	22.0668	279.13
91743	6.45054	250.535	10.1987	255.931	37.0039	216.353	33.0993	261.316	20.496	267.477	8.96296	253.731	5.40869	230.558	21.8712	278.965
91744	6.30678	250.739	9.99125	256.07	36.8893	216.629	32.8522	261.347	20.2516	267.43	8.77854	253.9	5.34693	230.8	21.6755	278.8
91745	6.16283	250.942	9.78368	256.209	36.774	216.904	32.6051	261.377	20.0072	267.382	8.59397	254.068	5.28496	231.041	21.4797	278.636
91746	6.01871	251.146	9.57599	256.347	36.658	217.178	32.358	261.408	19.7629	267.334	8.40924	254.236	5.22278	231.283	21.2838	278.472
91747	5.87441	251.349	9.36818	256.485	36.5412	217.451	32.1108	261.438	19.5185	267.287	8.22436	254.404	5.16039	231.524	21.0879	278.308
91748	5.72994	251.552	9.16025	256.623	36.4237	217.723	31.8636	261.467	19.2742	267.239	8.03933	254.571	5.09778	231.766	20.8918	278.144
91749	5.58529	251.755	8.9522	256.76	36.3055	217.994	31.6165	261.496	19.0298	267.192	7.85415	254.738	5.03497	232.007	20.6957	277.981
91750	5.44048	251.958	8.74403	256.898	36.1866	218.265	31.3693	261.525	18.7855	267.144	7.66882	254.905	4.97195	232.248	20.4995	277.819
91751	5.2955	252.161	8.53575	257.035	36.0669	218.534	31.122	261.554	18.5412	267.096	7.48335	255.072	4.90872	232.489	20.3032	277.656
91752	5.15036	252.363	8.32735	257.171	35.9465	218.803	30.8748	261.582	18.2969	267.049	7.29773	255.238	4.84529	232.73	20.1069	277.494
91753	5.00505	252.565	8.11884	257.308	35.8255	219.071	30.6275	261.61	18.0526	267.001	7.11197	255.405	4.78165	232.971	19.9104	277.332
91754	4.85958	252.768	7.91021	257.444	35.7037	219.338	30.3803	261.638	17.8083	266.954	6.92607	255.571	4.71781	233.212	19.7139	277.171
91755	4.71395	252.97	7.70148	257.58	35.5812	219.603	30.133	261.665	17.564	266.906	6.74003	255.737	4.65377	233.453	19.5174	277.009
91756	4.56816	253.171	7.49263	257.716	35.4581	219.869	29.8856	261.692	17.3198	266.859	6.55385	255.902	4.58953	233.694	19.3207	276.848
91757	4.42222	253.373	7.28368	257.851	35.3342	220.133	29.6383	261.719	17.0755	266.811	6.36754	256.068	4.52508	233.935	19.124	276.688
91758	4.27612	253.575	7.07462	257.987	35.2097	220.396	29.391	261.746	16.8313	266.764	6.18109	256.233	4.46044	234.175	18.9273	276.527
91759	4.12987	253.776	6.86546	258.122	35.0845	220.658	29.1436	261.772	16.5871	266.716	5.99451	256.398	4.3956	234.416	18.7304	276.367
91760	3.98347	253.977	6.65619	258.257	34.9587	220.92	28.8962	261.798	16.3428	266.669	5.8078	256.563	4.33057	234.656	18.5335	276.207
91761	3.83693	254.178	6.44682	258.391	34.8321	221.18	28.6488	261.824	16.0986	266.621	5.62096	256.727	4.26534	234.897	18.3366	276.047
91762	3.69024	254.379	6.23735	258.526	34.7049	221.44	28.4014	261.85	15.8544	266.574	5.434	256.891	4.19992	235.137	18.1396	275.888
91763	3.5434	254.58	6.02778	258.66	34.5771	221.699	28.154	261.875	15.6103	266.526	5.24691	257.056	4.13431	235.377	17.9425	275.729
91764	3.39642	254.781	5.81811	258.794	34.4486	221.957	27.9066	261.9	15.3661	266.478	5.0597	257.22	4.0685	235.617	17.7454	275.57
91765	3.2493	254.981	5.60834	258.928	34.3195	222.214	27.6591	261.925	15.1219	266.431	4.87236	257.383	4.00251	235.857	17.5482	275.411
91766	3.10204	255.182	5.39847	259.061	34.1897	222.471	27.4116	261.95	14.8778	266.383	4.68491	257.547	3.93632	236.097	17.351	275.253
91767	2.95465	255.382	5.18851	259.195	34.0593	222.726	27.1641	261.974	14.6336	266.336	4.49734	257.71	3.86995	236.337	17.1537	275.095
91768	2.80712	255.582	4.97846	259.328	33.9282	222.981	26.9166	261.998	14.3895	266.288	4.30965	257.874	3.8034	236.577	16.9564	274.937
91769	2.65946	255.782	4.76832	259.461	33.7966	223.234	26.6691	262.022	14.1454	266.24	4.12184	258.037	3.73665	236.817	16.759	274.779
91770	2.51166	255.982	4.55808	259.594	33.6643	223.487	26.4216	262.045	13.9013	266.193	3.93392	258.2	3.66973	237.057	16.5616	274.622
91771	2.36374	256.182	4.34776	259.726	33.5313	223.739	26.174	262.069	13.6572	266.145	3.74589	258.362	3.60262	237.296	16.3642	274.465
91772	2.21569	256.381	4.13734	259.859	33.3978	223.99	25.9265	262.092	13.4132	266.097	3.55775	258.525	3.53533	237.536	16.1667	274.308
91773	2.06752	256.581	3.92684	259.991	33.2637	224.24	25.6789	262.115	13.1691	266.049	3.3695	258.687	3.46786	237.776	15.9691	274.151
91774	1.91922	256.78	3.71626	260.123	33.1289	224.49	25.4313	262.137	12.9251	266.002	3.18114	258.85	3.40022	238.015	15.7715	273.995
91775	1.7708	256.98	3.50559	260.255	32.9936	224.738	25.1837	262.16	12.6811	265.954	2.99268	259.012	3.33239	238.255	15.5739	273.838
91776	1.62226	257.179	3.29483	260.387	32.8577	224.986	24.9361	262.182	12.4371	265.906	2.80412	259.174	3.26439	238.494	15.3763	273.682
91777	1.47361	257.378	3.08399	260.518	32.7212	225.233	24.6885	262.204	12.1931	265.858	2.61545	259.336	3.19621	238.733	15.1786	273.526
91778	1.32483	257.577	2.87308	260.65	32.584	225.479	24.4408	262.226	11.9491	265.81	2.42668	259.497	3.12786	238.972	14.9809	273.37
91779	1.17595	257.776	2.66208	260.781	32.4464	225.724	24.1932	262.247	11.7051	265.762	2.23782	259.659	3.05934	239.211	14.7831	273.215
91780	1.02695	257.975	2.451	260.912	32.3081	225.969	23.9455	262.269	11.4612	265.714	2.04885	259.82	2.99065	239.451	14.5853	273.059
91781	0.877837	258.174	2.23985	261.043	32.1693	226.212	23.6978	262.29	11.2172	265.666	1.85979	259.981	2.92178	239.69	14.3875	272.904
91782	0.728619	258.372	2.02862	261.174	32.0299	226.455	23.4501	262.31	10.9733	265.618	1.67064	260.143	2.85275	239.928	14.1897	272.749
91783	0.579294	258.571	1.81731	261.305	31.8899	226.697	23.2024	262.331	10.7294	265.57	1.48139	260.304	2.78355	240.167	13.9918	272.594
91784	0.429864	258.769	1.60593	261.435	31.7494	226.938	22.9547	262.352	10.4855	265.522	1.29205	260.464	2.71418	240.406	13.7939	272.439
91785	0.280331	258.968	1.39448	261.566	31.6083	227.178	22.707	262.372	10.2416	265.474	1.10262	260.625	2.64465	240.645	13.596	272.285
91786	0.130697	259.166	1.18296	261.696	31.4667	227.417	22.4592	262.392	9.99779	265.425	0.91311	260.786	2.57495	240.884	13.3981	272.13
91787	-0.0190362	259.364	0.971366	261.827	31.3245	227.656	22.2115	262.412	9.75395	265.377	0.723508	260.947	2.50509	241.122	13.2001	271.976
91788	-0.168867	259.563	0.759703	261.957	31.1818	227.894	21.9637	262.431	9.51013	265.329	0.533821	261.107	2.43508	241.361	13.0021	271.822
91789	-0.318794	259.761	0.547972	262.087	31.0385	228.131	21.7159	262.451	9.26632	265.28	0.344051	261.267	2.3649	241.599	12.8041	271.668
91790	-0.468814	259.959	0.336174	262.216	30.8947	228.367	21.4681	262.47	9.02253	265.232	0.154199	261.428	2.29456	241.838	12.6061	271.514
91791	-0.618927	260.157	0.12431	262.346	30.7504	228.603	21.2203	262.489	8.77876	265.183	-0.0357326	261.588	2.22406	242.076	12.4081	271.36
91792	-0.76913	260.354	-0.0876185	262.476	30.6056	228.837	20.9725	262.508	8.535	265.135	-0.225743	261.748	2.15341	242.315	12.2101	271.207
91793	-0.919421	260.552	-0.29961	262.606	30.4602	229.071	20.7247	262.527	8.29127	265.086	-0.415831	261.908	2.0826	242.553	12.0121	271.053
91794	-1.0698	260.75	-0.511664	262.735	30.3144	229.304	20.4769	262.545	8.04755	265.037	-0.605994	262.068	2.01164	242.791	11.814	270.9
91795	-1.22026	260.948	-0.72378	262.864	30.168	229.537	20.229	262.563	7.80384	264.989	-0.796232	262.228	1.94053	243.029	11.6159	270.747
91796	-1.37081	261.146	-0.935955	262.993	30.0211	229.768	19.9812	262.582	7.56016	264.94	-0.986542	262.387	1.86926	243.267	11.4179	270.594
91797	-1.52143	261.343	-1.14819	263.123	29.8737	229.999	19.7333	262.599	7.31649	264.891	-1.17692	262.547	1.79785	243.506	11.2198	270.441
91798	-1.67214	261.541	-1.36048	263.252	29.7258	230.229	19.4855	262.617	7.07285	264.842	-1.36737	262.706	1.72629	243.744	11.0217	270.288
91799	-1.82292	261.738	-1.57283	263.381	29.5774	230.458	19.2376	262.635	6.82922	264.793	-1.55789	262.866	1.65458	243.981	10.8237	270.135
91800	-1.97378	261.936	-1.78524	263.51	29.4286	230.687	18.9897	262.652	6.58561	264.744	-1.74848	263.025	1.58272	244.219	10.6256	269.983
91801	-2.12471	262.133	-1.99769	263.639	29.2792	230.915	18.7418	262.669	6.34202	264.695	-1.93913	263.185	1.51072	244.457	10.4275	269.83
91802	-2.27572	262.331	-2.21021	263.767	29.1293	231.142	18.4939	262.686	6.09844	264.646	-2.12984	263.344	1.43857	244.695	10.2294	269.678
91803	-2.42679	262.528	-2.42277	263.896	28.979	231.368	18.2459	262.703	5.85489	264.596	-2.32062	263.503	1.36629	244.933	10.0313	269.526
91804	-2.57794	262.726	-2.63539	264.025	28.8282	231.593	17.998	262.72	5.61136	264.547	-2.51145	263.663	1.29386	245.171	9.83326	269.373
91805	-2.72915	262.923	-2.84805	264.153	28.6769	231.818	17.7501	262.736	5.36785	264.497	-2.70235	263.822	1.22129	245.408	9.6352	269.221
91806	-2.88042	263.12	-3.06077	264.282	28.5252	232.042	17.5021	262.752	5.12436	264.448	-2.8933	263.981	1.14859	245.646	9.43714	269.069
91807	-3.03176	263.317	-3.27353	264.41	28.373	232.265	17.2542	262.769	4.88089	264.398	-3.08431	264.14	1.07574	245.883	9.23909	268.917
91808	-3.18316	263.515	-3.48634	264.539	28.2203	232.488	17.0062	262.784	4.63743	264.348	-3.27537	264.299	1.00276	246.121	9.04105	268.765
91809	-3.33462	263.712	-3.6992	264.667	28.0672	232.71	16.7582	262.8	4.394	264.298	-3.46649	264.458	0.929652	246.358	8.84302	268.613
91810	-3.48613	263.909	-3.9121	264.796	27.9136	232.931	16.5102	262.816	4.15059	264.249	-3.65766	264.617	0.856405	246.596	8.645	268.461
91811	-3.63771	264.106	-4.12504	264.924	27.7596	233.151	16.2622	262.831	3.90721	264.199	-3.84888	264.776	0.783026	246.833	8.447	268.31
91812	-3.78933	264.304	-4.33803	265.052	27.6051	233.371	16.0142	262.847	3.66384	264.149	-4.04014	264.935	0.709517	247.07	8.24902	268.158
91813	-3.94101	264.501	-4.55105	265.18	27.4502	233.59	15.7662	262.862	3.42049	264.098	-4.23146	265.094	0.635878	247.308	8.05105	268.006
91814	-4.09274	264.698	-4.76412	265.308	27.2949	233.808	15.5182	262.877	3.17717	264.048	-4.42282	265.253	0.562111	247.545	7.8531	267.855
91815	-4.24452	264.895	-4.97723	265.437	27.1391	234.026	15.2702	262.892	2.93387	263.998	-4.61422	265.412	0.488217	247.782	7.65517	267.703
91816	-4.39634	265.092	-5.19038	265.565	26.9829	234.243	15.0221	262.906	2.69059	263.947	-4.80567	265.57	0.414198	248.019	7.45725	267.552
91817	-4.54821	265.29	-5.40356	265.693	26.8262	234.459	14.7741	262.921	2.44734	263.897	-4.99716	265.729	0.340054	248.256	7.25937	267.4
91818	-4.70012	265.487	-5.61678	265.821	26.6692	234.675	14.526	262.935	2.2041	263.846	-5.18868	265.888	0.265788	248.494	7.0615	267.249
91819	-4.85207	265.684	-5.83003	265.949	26.5117	234.889	14.278	262.949	1.96089	263.795	-5.38025	266.047	0.1914	248.731	6.86366	267.097
91820	-5.00407	265.882	-6.04332	266.077	26.3538	235.104	14.0299	262.963	1.71771	263.745	-5.57185	266.206	0.116891	248.968	6.66585	266.946
91821	-5.1561	266.079	-6.25664	266.205	26.1955	235.317	13.7818	262.977	1.47454	263.693	-5.76349	266.365	0.0422639	249.204	6.46806	266.795
91822	-5.30816	266.276	-6.46999	266.334	26.0368	235.53	13.5338	262.99	1.23141	263.642	-5.95516	266.524	-0.0324813	249.441	6.27031	266.643
91823	-5.46026	266.473	-6.68337	266.462	25.8776	235.742	13.2857	263.004	0.98829	263.591	-6.14687	266.683	-0.107343	249.678	6.07258	266.492
91824	-5.6124	266.671	-6.89678	266.59	25.7181	235.954	13.0376	263.017	0.745199	263.54	-6.3386	266.842	-0.18232	249.915	5.87489	266.341
91825	-5.76456	266.868	-7.11022	266.718	25.5582	236.165	12.7895	263.031	0.502132	263.488	-6.53036	267.001	-0.25741	250.152	5.67723	266.189
91826	-5.91676	267.065	-7.32369	266.846	25.3978	236.375	12.5414	263.044	0.259091	263.437	-6.72216	267.16	-0.332614	250.389	5.4796	266.038
91827	-6.06897	267.263	-7.53718	266.974	25.2371	236.584	12.2932	263.057	0.0160745	263.385	-6.91398	267.319	-0.407928	250.625	5.28201	265.887
91828	-6.22122	267.46	-7.7507	267.102	25.076	236.793	12.0451	263.069	-0.226917	263.334	-7.10582	267.478	-0.483352	250.862	5.08446	265.736
91829	-6.37349	267.658	-7.96425	267.23	24.9145	237.001	11.797	263.082	-0.469882	263.282	-7.29769	267.637	-0.558885	251.099	4.88695	265.584
91830	-6.52578	267.855	-8.17781	267.359	24.7527	237.209	11.5488	263.094	-0.712822	263.23	-7.48958	267.796	-0.634525	251.335	4.68947	265.433
91831	-6.67809	268.053	-8.3914	267.487	24.5904	237.416	11.3007	263.107	-0.955736	263.177	-7.68149	267.955	-0.710272	251.572	4.49204	265.282
91832	-6.83041	268.251	-8.60501	267.615	24.4278	237.623	11.0526	263.119	-1.19862	263.125	-7.87342	268.114	-0.786123	251.809	4.29465	265.13
91833	-6.98276	268.448	-8.81864	267.743	24.2648	237.828	10.8044	263.131	-1.44148	263.073	-8.06536	268.274	-0.862077	252.045	4.09731	264.979
91834	-7.13511	268.646	-9.03229	267.872	24.1014	238.034	10.5562	263.143	-1.68432	263.02	-8.25732	268.433	-0.938133	252.282	3.90001	264.828
91835	-7.28748	268.844	-9.24596	268	23.9377	238.238	10.308	263.155	-1.92712	262.968	-8.4493	268.592	-1.01429	252.518	3.70276	264.676
91836	-7.43986	269.042	-9.45964	268.129	23.7736	238.442	10.0599	263.166	-2.1699	262.915	-8.64129	268.752	-1.09055	252.755	3.50556	264.525
91837	-7.59225	269.24	-9.67334	268.257	23.6092	238.645	9.8117	263.178	-2.41266	262.862	-8.83329	268.911	-1.1669	252.991	3.3084	264.373
91838	-7.74465	269.438	-9.88705	268.386	23.4444	238.848	9.5635	263.189	-2.65538	262.809	-9.02531	269.071	-1.24335	253.228	3.1113	264.222
91839	-7.89705	269.636	-10.1008	268.514	23.2792	239.05	9.31531	263.2	-2.89807	262.756	-9.21733	269.231	-1.3199	253.464	2.91425	264.07
91840	-8.04946	269.834	-10.3145	268.643	23.1137	239.252	9.06711	263.211	-3.14074	262.702	-9.40936	269.39	-1.39654	253.701	2.71726	263.919
91841	-8.20186	270.032	-10.5283	268.772	22.9478	239.453	8.8189	263.222	-3.38338	262.649	-9.60139	269.55	-1.47327	253.937	2.52032	263.767
91842	-8.35427	270.23	-10.742	268.901	22.7816	239.653	8.57069	263.233	-3.62599	262.595	-9.79343	269.71	-1.5501	254.173	2.32343	263.616
91843	-8.50667	270.429	-10.9558	269.03	22.6151	239.853	8.32247	263.243	-3.86857	262.541	-9.98547	269.87	-1.62702	254.41	2.12661	263.464
91844	-8.65907	270.627	-11.1696	269.159	22.4482	240.052	8.07425	263.254	-4.11112	262.487	-10.1775	270.03	-1.70402	254.646	1.92984	263.312
91845	-8.81147	270.826	-11.3834	269.288	22.281	240.251	7.82602	263.264	-4.35364	262.433	-10.3696	270.19	-1.78111	254.882	1.73314	263.16
91846	-8.96385	271.024	-11.5972	269.417	22.1135	240.449	7.57778	263.274	-4.59613	262.379	-10.5616	270.351	-1.85829	255.118	1.53649	263.008
91847	-9.11623	271.223	-11.811	269.546	21.9456	240.647	7.32954	263.284	-4.83859	262.325	-10.7536	270.511	-1.93555	255.355	1.33992	262.856
91848	-9.2686	271.422	-12.0248	269.675	21.7774	240.844	7.0813	263.295	-5.08101	262.27	-10.9457	270.672	-2.0129	255.591	1.1434	262.704
91849	-9.42095	271.621	-12.2386	269.805	21.6089	241.04	6.83305	263.304	-5.32341	262.215	-11.1377	270.832	-2.09033	255.827	0.946957	262.552
91850	-9.57329	271.82	-12.4524	269.935	21.44	241.236	6.58479	263.314	-5.56578	262.16	-11.3297	270.993	-2.16784	256.063	0.750579	262.4
91851	-9.72561	272.019	-12.6662	270.064	21.2708	241.431	6.33653	263.324	-5.80811	262.105	-11.5217	271.154	-2.24543	256.3	0.554269	262.248
91852	-9.87791	272.218	-12.88	270.194	21.1014	241.626	6.08827	263.333	-6.05041	262.05	-11.7137	271.315	-2.3231	256.536	0.358031	262.095
91853	-10.0302	272.417	-13.0938	270.324	20.9316	241.82	5.84	263.342	-6.29268	261.995	-11.9057	271.476	-2.40084	256.772	0.161865	261.943
91854	-10.1824	272.617	-13.3076	270.454	20.7615	242.014	5.59172	263.351	-6.53491	261.939	-12.0977	271.637	-2.47866	257.008	-0.0342266	261.79
91855	-10.3347	272.816	-13.5214	270.584	20.5911	242.207	5.34344	263.36	-6.77712	261.883	-12.2896	271.799	-2.55656	257.244	-0.230243	261.638
91856	-10.4869	273.016	-13.7352	270.714	20.4204	242.4	5.09516	263.369	-7.01929	261.827	-12.4816	271.96	-2.63453	257.48	-0.426184	261.485
91857	-10.6391	273.216	-13.949	270.844	20.2493	242.592	4.84687	263.378	-7.26142	261.771	-12.6735	272.122	-2.71257	257.716	-0.622046	261.332
91858	-10.7912	273.416	-14.1627	270.975	20.078	242.784	4.59858	263.387	-7.50352	261.715	-12.8654	272.284	-2.79068	257.952	-0.817829	261.179
91859	-10.9434	273.615	-14.3765	271.106	19.9064	242.975	4.35028	263.395	-7.74559	261.659	-13.0573	272.445	-2.86886	258.189	-1.01353	261.026
91860	-11.0954	273.816	-14.5903	271.236	19.7345	243.166	4.10198	263.404	-7.98762	261.602	-13.2491	272.608	-2.9471	258.425	-1.20915	260.873
91861	-11.2475	274.016	-14.804	271.367	19.5624	243.356	3.85367	263.412	-8.22962	261.545	-13.441	272.77	-3.02542	258.661	-1.40469	260.719
91862	-11.3995	274.216	-15.0178	271.498	19.3899	243.545	3.60536	263.42	-8.47158	261.488	-13.6327	272.932	-3.10379	258.897	-1.60014	260.566
91863	-11.5515	274.417	-15.2315	271.63	19.2171	243.734	3.35704	263.428	-8.71351	261.431	-13.8245	273.095	-3.18223	259.133	-1.7955	260.413
91864	-11.7034	274.618	-15.4452	271.761	19.0441	243.923	3.10872	263.436	-8.95539	261.374	-14.0163	273.258	-3.26074	259.369	-1.99077	260.259
91865	-11.8553	274.818	-15.6589	271.893	18.8708	244.111	2.8604	263.443	-9.19725	261.316	-14.208	273.421	-3.3393	259.605	-2.18596	260.105
91866	-12.0071	275.019	-15.8726	272.024	18.6972	244.299	2.61207	263.451	-9.43906	261.258	-14.3997	273.584	-3.41793	259.841	-2.38105	259.951
91867	-12.1589	275.221	-16.0862	272.156	18.5233	244.486	2.36374	263.459	-9.68084	261.2	-14.5913	273.747	-3.49661	260.077	-2.57606	259.797
91868	-12.3107	275.422	-16.2999	272.288	18.3492	244.673	2.11541	263.466	-9.92258	261.142	-14.7829	273.911	-3.57535	260.313	-2.77096	259.643
91869	-12.4624	275.623	-16.5135	272.421	18.1748	244.859	1.86707	263.473	-10.1643	261.084	-14.9745	274.074	-3.65415	260.549	-2.96577	259.488
91870	-12.614	275.825	-16.7271	272.553	18.0001	245.045	1.61873	263.48	-10.406	261.025	-15.166	274.238	-3.73299	260.786	-3.16049	259.334
91871	-12.7656	276.027	-16.9407	272.686	17.8252	245.231	1.37038	263.487	-10.6476	260.966	-15.3575	274.402	-3.8119	261.022	-3.35511	259.179
91872	-12.9171	276.229	-17.1543	272.818	17.65	245.416	1.12203	263.494	-10.8892	260.907	-15.549	274.567	-3.89085	261.258	-3.54962	259.024
91873	-13.0686	276.431	-17.3678	272.951	17.4745	245.6	0.873678	263.501	-11.1307	260.848	-15.7404	274.731	-3.96985	261.494	-3.74403	258.869
91874	-13.22	276.633	-17.5813	273.085	17.2988	245.784	0.625322	263.507	-11.3722	260.788	-15.9318	274.896	-4.04891	261.73	-3.93834	258.714
91875	-13.3714	276.836	-17.7948	273.218	17.1228	245.968	0.376962	263.514	-11.6137	260.729	-16.1231	275.061	-4.12801	261.966	-4.13255	258.559
91876	-13.5227	277.038	-18.0082	273.352	16.9466	246.151	0.128599	263.52	-11.8551	260.669	-16.3144	275.226	-4.20716	262.202	-4.32665	258.403
91877	-13.6739	277.241	-18.2217	273.486	16.7701	246.333	-0.119768	263.527	-12.0965	260.608	-16.5056	275.391	-4.28635	262.438	-4.52064	258.248
91878	-13.825	277.444	-18.435	273.62	16.5934	246.516	-0.368137	263.533	-12.3378	260.548	-16.6967	275.557	-4.36558	262.674	-4.71452	258.092
91879	-13.9761	277.647	-18.6484	273.754	16.4164	246.697	-0.61651	263.539	-12.5791	260.488	-16.8878	275.723	-4.44486	262.911	-4.90829	257.936
91880	-14.1272	277.851	-18.8617	273.888	16.2392	246.879	-0.864885	263.545	-12.8204	260.427	-17.0789	275.889	-4.52418	263.147	-5.10195	257.779
91881	-14.2781	278.054	-19.075	274.023	16.0618	247.06	-1.11326	263.55	-13.0616	260.366	-17.2699	276.055	-4.60353	263.383	-5.2955	257.623
91882	-14.429	278.258	-19.2883	274.158	15.8841	247.241	-1.36165	263.556	-13.3027	260.304	-17.4608	276.222	-4.68293	263.619	-5.48893	257.466
91883	-14.5797	278.462	-19.5015	274.293	15.7062	247.421	-1.61003	263.562	-13.5439	260.243	-17.6517	276.388	-4.76236	263.855	-5.68224	257.31
91884	-14.7304	278.666	-19.7147	274.429	15.528	247.601	-1.85842	263.567	-13.785	260.181	-17.8425	276.555	-4.84183	264.091	-5.87543	257.152
91885	-14.8811	278.87	-19.9278	274.564	15.3496	247.78	-2.10681	263.572	-14.026	260.119	-18.0333	276.723	-4.92133	264.328	-6.0685	256.995
91886	-15.0316	279.075	-20.141	274.7	15.171	247.959	-2.3552	263.577	-14.267	260.056	-18.224	276.89	-5.00087	264.564	-6.26145	256.838
91887	-15.182	279.28	-20.354	274.837	14.9922	248.137	-2.60359	263.582	-14.5079	259.994	-18.4146	277.058	-5.08043	264.8	-6.45427	256.68
91888	-15.3324	279.485	-20.567	274.973	14.8131	248.316	-2.85199	263.587	-14.7488	259.931	-18.6051	277.226	-5.16003	265.037	-6.64698	256.522
91889	-15.4827	279.69	-20.78	275.11	14.6338	248.494	-3.10039	263.592	-14.9897	259.868	-18.7956	277.395	-5.23965	265.273	-6.83955	256.364
91890	-15.6329	279.896	-20.9929	275.247	14.4543	248.671	-3.3488	263.597	-15.2305	259.805	-18.986	277.563	-5.3193	265.509	-7.03199	256.206
91891	-15.7829	280.101	-21.2058	275.384	14.2746	248.848	-3.5972	263.601	-15.4712	259.741	-19.1763	277.733	-5.39898	265.746	-7.22431	256.047
91892	-15.9329	280.307	-21.4187	275.522	14.0947	249.025	-3.84561	263.606	-15.7119	259.677	-19.3666	277.902	-5.47868	265.982	-7.41649	255.889
91893	-16.0828	280.513	-21.6315	275.66	13.9145	249.201	-4.09402	263.61	-15.9526	259.613	-19.5568	278.071	-5.55841	266.218	-7.60854	255.73
91894	-16.2326	280.72	-21.8442	275.798	13.7341	249.377	-4.34243	263.614	-16.1932	259.548	-19.7469	278.241	-5.63816	266.455	-7.80045	255.57
91895	-16.3823	280.926	-22.0569	275.936	13.5536	249.553	-4.59084	263.618	-16.4338	259.484	-19.9369	278.411	-5.71792	266.691	-7.99223	255.411
91896	-16.5319	281.133	-22.2695	276.075	13.3728	249.728	-4.83926	263.622	-16.6743	259.419	-20.1268	278.582	-5.79771	266.928	-8.18387	255.251
91897	-16.6814	281.34	-22.4821	276.214	13.1918	249.903	-5.08768	263.626	-16.9148	259.353	-20.3167	278.753	-5.87751	267.164	-8.37536	255.091
91898	-16.8307	281.548	-22.6946	276.354	13.0106	250.077	-5.3361	263.63	-17.1552	259.288	-20.5064	278.924	-5.95733	267.401	-8.56672	254.931
91899	-16.98	281.755	-22.9071	276.493	12.8293	250.251	-5.58452	263.634	-17.3955	259.222	-20.6961	279.095	-6.03717	267.637	-8.75793	254.771
91900	-17.1291	281.963	-23.1195	276.633	12.6477	250.425	-5.83294	263.637	-17.6358	259.156	-20.8857	279.267	-6.11702	267.874	-8.949	254.61
91901	-17.2782	282.171	-23.3318	276.774	12.4659	250.599	-6.08137	263.64	-17.8761	259.089	-21.0751	279.439	-6.19688	268.111	-9.13992	254.449
91902	-17.4271	282.38	-23.5441	276.914	12.2839	250.772	-6.3298	263.644	-18.1163	259.022	-21.2645	279.612	-6.27675	268.347	-9.33069	254.288
91903	-17.5759	282.588	-23.7563	277.055	12.1017	250.945	-6.57823	263.647	-18.3564	258.955	-21.4538	279.784	-6.35664	268.584	-9.5213	254.126
91904	-17.7246	282.797	-23.9684	277.197	11.9194	251.117	-6.82666	263.65	-18.5965	258.888	-21.643	279.958	-6.43653	268.821	-9.71177	253.964
91905	-17.8731	283.006	-24.1805	277.339	11.7369	251.289	-7.07509	263.653	-18.8365	258.82	-21.8321	280.131	-6.51642	269.057	-9.90208	253.802
91906	-18.0215	283.216	-24.3925	277.481	11.5541	251.461	-7.32352	263.655	-19.0765	258.752	-22.0211	280.305	-6.59633	269.294	-10.0922	253.64
91907	-18.1698	283.425	-24.6045	277.623	11.3712	251.633	-7.57196	263.658	-19.3164	258.684	-22.21	280.479	-6.67623	269.531	-10.2822	253.477
91908	-18.318	283.635	-24.8164	277.766	11.1881	251.804	-7.8204	263.661	-19.5563	258.615	-22.3988	280.654	-6.75614	269.768	-10.4721	253.314
91909	-18.466	283.846	-25.0282	277.909	11.0048	251.975	-8.06883	263.663	-19.7961	258.546	-22.5874	280.829	-6.83605	270.005	-10.6617	253.151
91910	-18.6139	284.056	-25.2399	278.053	10.8214	252.145	-8.31727	263.665	-20.0358	258.476	-22.776	281.004	-6.91596	270.242	-10.8513	252.987
91911	-18.7617	284.267	-25.4515	278.197	10.6378	252.316	-8.56571	263.667	-20.2755	258.407	-22.9644	281.18	-6.99587	270.479	-11.0406	252.823
91912	-18.9093	284.478	-25.6631	278.341	10.454	252.486	-8.81415	263.669	-20.5151	258.337	-23.1528	281.356	-7.07578	270.716	-11.2298	252.659
91913	-19.0568	284.69	-25.8746	278.486	10.27	252.655	-9.0626	263.671	-20.7547	258.266	-23.341	281.533	-7.15568	270.953	-11.4188	252.495
91914	-19.2042	284.901	-26.086	278.631	10.0858	252.825	-9.31104	263.673	-20.9942	258.196	-23.5291	281.709	-7.23558	271.19	-11.6076	252.33
91915	-19.3514	285.113	-26.2974	278.777	9.90152	252.994	-9.55949	263.675	-21.2337	258.125	-23.7171	281.887	-7.31547	271.427	-11.7963	252.165
91916	-19.4984	285.326	-26.5086	278.923	9.71703	253.163	-9.80793	263.676	-21.4731	258.053	-23.9049	282.065	-7.39535	271.664	-11.9848	252
91917	-19.6453	285.538	-26.7198	279.069	9.53239	253.331	-10.0564	263.678	-21.7124	257.981	-24.0926	282.243	-7.47522	271.901	-12.1731	251.834
91918	-19.7921	285.751	-26.9309	279.216	9.34758	253.5	-10.3048	263.679	-21.9516	257.909	-24.2802	282.421	-7.55509	272.139	-12.3613	251.668
91919	-19.9386	285.965	-27.1419	279.363	9.1626	253.668	-10.5533	263.68	-22.1908	257.837	-24.4677	282.6	-7.63493	272.376	-12.5492	251.501
91920	-20.0851	286.178	-27.3528	279.511	8.97747	253.835	-10.8017	263.681	-22.4299	257.764	-24.6551	282.78	-7.71477	272.614	-12.737	251.335
91921	-20.2314	286.392	-27.5636	279.659	8.79219	254.003	-11.0502	263.682	-22.669	257.69	-24.8423	282.96	-7.79459	272.851	-12.9246	251.168
91922	-20.3775	286.606	-27.7743	279.808	8.60674	254.17	-11.2986	263.683	-22.908	257.617	-25.0293	283.14	-7.87439	273.089	-13.112	251
91923	-20.5234	286.821	-27.9849	279.957	8.42114	254.337	-11.5471	263.684	-23.1469	257.543	-25.2163	283.321	-7.95418	273.326	-13.2992	250.832
91924	-20.6692	287.036	-28.1955	280.107	8.2354	254.504	-11.7955	263.684	-23.3858	257.468	-25.4031	283.502	-8.03394	273.564	-13.4862	250.664
91925	-20.8148	287.251	-28.4059	280.257	8.0495	254.671	-12.044	263.685	-23.6246	257.393	-25.5897	283.684	-8.11369	273.801	-13.6731	250.496
91926	-20.9603	287.467	-28.6162	280.407	7.86345	254.837	-12.2924	263.685	-23.8633	257.318	-25.7762	283.866	-8.19341	274.039	-13.8597	250.327
91927	-21.1056	287.683	-28.8265	280.558	7.67725	255.003	-12.5409	263.685	-24.1019	257.243	-25.9626	284.048	-8.27311	274.277	-14.0462	250.158
91928	-21.2507	287.899	-29.0366	280.71	7.49091	255.168	-12.7893	263.685	-24.3405	257.166	-26.1488	284.231	-8.35279	274.515	-14.2324	249.988
91929	-21.3956	288.116	-29.2466	280.862	7.30443	255.334	-13.0378	263.685	-24.579	257.09	-26.3348	284.415	-8.43243	274.752	-14.4185	249.818
91930	-21.5403	288.333	-29.4565	281.014	7.11781	255.499	-13.2862	263.685	-24.8175	257.013	-26.5208	284.599	-8.51206	274.99	-14.6043	249.648
91931	-21.6849	288.55	-29.6663	281.167	6.93105	255.664	-13.5347	263.685	-25.0558	256.936	-26.7065	284.784	-8.59165	275.228	-14.7899	249.477
91932	-21.8293	288.768	-29.876	281.321	6.74414	255.829	-13.7831	263.684	-25.2941	256.858	-26.8921	284.969	-8.67121	275.466	-14.9754	249.306
91933	-21.9735	288.986	-30.0856	281.475	6.55711	255.994	-14.0316	263.684	-25.5323	256.78	-27.0775	285.154	-8.75074	275.705	-15.1606	249.135
91934	-22.1175	289.204	-30.2951	281.63	6.36994	256.158	-14.28	263.683	-25.7704	256.701	-27.2628	285.341	-8.83024	275.943	-15.3456	248.963
91935	-22.2613	289.423	-30.5044	281.785	6.18263	256.322	-14.5285	263.682	-26.0085	256.622	-27.4479	285.527	-8.9097	276.181	-15.5304	248.79
91936	-22.4049	289.642	-30.7136	281.94	5.9952	256.486	-14.7769	263.681	-26.2465	256.543	-27.6328	285.714	-8.98913	276.419	-15.715	248.618
91937	-22.5483	289.862	-30.9227	282.097	5.80763	256.65	-15.0254	263.68	-26.4844	256.462	-27.8176	285.902	-9.06852	276.658	-15.8994	248.445
91938	-22.6915	290.082	-31.1317	282.253	5.61994	256.814	-15.2738	263.679	-26.7222	256.382	-28.0022	286.09	-9.14787	276.896	-16.0835	248.271
91939	-22.8346	290.302	-31.3406	282.411	5.43213	256.977	-15.5223	263.678	-26.9599	256.301	-28.1866	286.279	-9.22718	277.135	-16.2674	248.097
91940	-22.9774	290.523	-31.5493	282.569	5.24418	257.14	-15.7707	263.676	-27.1976	256.22	-28.3708	286.468	-9.30645	277.373	-16.4511	247.923
91941	-23.12	290.744	-31.7579	282.727	5.05612	257.303	-16.0192	263.675	-27.4352	256.138	-28.5549	286.658	-9.38567	277.612	-16.6346	247.748
91942	-23.2624	290.966	-31.9664	282.887	4.86794	257.466	-16.2676	263.673	-27.6726	256.055	-28.7388	286.848	-9.46485	277.851	-16.8178	247.573
91943	-23.4046	291.188	-32.1747	283.046	4.67963	257.629	-16.5161	263.671	-27.91	255.973	-28.9225	287.039	-9.54399	278.089	-17.0008	247.397
91944	-23.5465	291.41	-32.383	283.207	4.49121	257.791	-16.7645	263.669	-28.1474	255.889	-29.106	287.231	-9.62308	278.328	-17.1836	247.221
91945	-23.6883	291.632	-32.591	283.368	4.30267	257.954	-17.013	263.667	-28.3846	255.805	-29.2893	287.423	-9.70212	278.567	-17.3662	247.044
91946	-23.8299	291.856	-32.7989	283.529	4.11402	258.116	-17.2614	263.665	-28.6217	255.721	-29.4724	287.616	-9.78111	278.806	-17.5485	246.868
91947	-23.9712	292.079	-33.0067	283.692	3.92526	258.278	-17.5099	263.663	-28.8588	255.636	-29.6553	287.809	-9.86005	279.045	-17.7306	246.69
91948	-24.1123	292.303	-33.2144	283.854	3.73639	258.439	-17.7583	263.66	-29.0958	255.551	-29.838	288.003	-9.93894	279.284	-17.9124	246.512
91949	-24.2531	292.527	-33.4219	284.018	3.5474	258.601	-18.0068	263.657	-29.3326	255.465	-30.0205	288.197	-10.0178	279.524	-18.094	246.334
91950	-24.3938	292.752	-33.6292	284.182	3.35831	258.762	-18.2552	263.655	-29.5694	255.378	-30.2029	288.393	-10.0966	279.763	-18.2753	246.155
91951	-24.5342	292.977	-33.8364	284.347	3.16911	258.924	-18.5036	263.652	-29.8061	255.291	-30.385	288.588	-10.1753	280.002	-18.4564	245.976
91952	-24.6743	293.203	-34.0435	284.513	2.97981	259.085	-18.7521	263.649	-30.0427	255.204	-30.5669	288.785	-10.2539	280.242	-18.6372	245.796
91953	-24.8143	293.429	-34.2503	284.679	2.79041	259.246	-19.0005	263.645	-30.2792	255.116	-30.7486	288.982	-10.3325	280.481	-18.8178	245.616
91954	-24.954	293.656	-34.4571	284.846	2.6009	259.407	-19.2489	263.642	-30.5156	255.027	-30.93	289.18	-10.4111	280.721	-18.9981	245.435
91955	-25.0934	293.883	-34.6637	285.014	2.41129	259.567	-19.4974	263.639	-30.7519	254.938	-31.1113	289.378	-10.4896	280.961	-19.1782	245.254
91956	-25.2326	294.11	-34.8701	285.182	2.22159	259.728	-19.7458	263.635	-30.9881	254.848	-31.2923	289.577	-10.568	281.201	-19.358	245.072
91957	-25.3716	294.338	-35.0763	285.351	2.03179	259.888	-19.9942	263.631	-31.2242	254.758	-31.4731	289.776	-10.6463	281.44	-19.5375	244.89
91958	-25.5103	294.566	-35.2824	285.521	1.8419	260.048	-20.2427	263.627	-31.4602	254.667	-31.6537	289.977	-10.7246	281.68	-19.7168	244.708
91959	-25.6487	294.795	-35.4883	285.691	1.65191	260.209	-20.4911	263.623	-31.6961	254.575	-31.834	290.178	-10.8028	281.921	-19.8958	244.524
91960	-25.7869	295.024	-35.694	285.863	1.46183	260.369	-20.7395	263.619	-31.9319	254.483	-32.0141	290.379	-10.881	282.161	-20.0745	244.341
91961	-25.9249	295.254	-35.8996	286.035	1.27165	260.529	-20.9879	263.615	-32.1676	254.39	-32.194	290.582	-10.959	282.401	-20.2529	244.157
91962	-26.0626	295.484	-36.105	286.208	1.0814	260.688	-21.2364	263.61	-32.4032	254.297	-32.3737	290.785	-11.0371	282.641	-20.4311	243.972
91963	-26.2	295.714	-36.3102	286.381	0.891048	260.848	-21.4848	263.606	-32.6387	254.203	-32.553	290.988	-11.115	282.882	-20.609	243.787
91964	-26.3371	295.945	-36.5152	286.556	0.700616	261.008	-21.7332	263.601	-32.8741	254.108	-32.7322	291.193	-11.1928	283.122	-20.7866	243.601
91965	-26.474	296.177	-36.72	286.731	0.510099	261.167	-21.9816	263.596	-33.1093	254.013	-32.9111	291.398	-11.2706	283.363	-20.9639	243.415
91966	-26.6106	296.409	-36.9246	286.907	0.3195	261.327	-22.23	263.591	-33.3445	253.917	-33.0898	291.604	-11.3483	283.603	-21.141	243.228
91967	-26.7469	296.641	-37.1291	287.084	0.12882	261.486	-22.4784	263.586	-33.5795	253.821	-33.2681	291.811	-11.4259	283.844	-21.3177	243.041
91968	-26.883	296.874	-37.3333	287.262	-0.0619398	261.645	-22.7268	263.58	-33.8144	253.723	-33.4463	292.018	-11.5035	284.085	-21.4942	242.853
91969	-27.0187	297.108	-37.5374	287.44	-0.252777	261.804	-22.9752	263.575	-34.0492	253.625	-33.6242	292.226	-11.5809	284.326	-21.6703	242.664
91970	-27.1542	297.342	-37.7412	287.619	-0.443692	261.963	-23.2236	263.569	-34.2839	253.527	-33.8018	292.435	-11.6583	284.567	-21.8462	242.475
91971	-27.2894	297.576	-37.9449	287.8	-0.634681	262.122	-23.472	263.563	-34.5185	253.427	-33.9791	292.645	-11.7356	284.808	-22.0217	242.286
91972	-27.4243	297.811	-38.1483	287.981	-0.825743	262.281	-23.7204	263.558	-34.7529	253.327	-34.1562	292.855	-11.8128	285.049	-22.197	242.096
91973	-27.559	298.046	-38.3516	288.163	-1.01688	262.44	-23.9688	263.551	-34.9873	253.227	-34.333	293.066	-11.8899	285.291	-22.3719	241.905
91974	-27.6933	298.282	-38.5546	288.346	-1.20808	262.598	-24.2172	263.545	-35.2214	253.125	-34.5095	293.278	-11.967	285.532	-22.5466	241.714
91975	-27.8273	298.519	-38.7574	288.53	-1.39936	262.757	-24.4656	263.539	-35.4555	253.023	-34.6857	293.491	-12.0439	285.773	-22.7209	241.522
91976	-27.961	298.756	-38.96	288.714	-1.5907	262.915	-24.714	263.532	-35.6895	252.92	-34.8617	293.705	-12.1207	286.015	-22.8949	241.329
91977	-28.0944	298.993	-39.1624	288.9	-1.78211	263.074	-24.9624	263.525	-35.9233	252.816	-35.0373	293.919	-12.1975	286.257	-23.0686	241.137
91978	-28.2276	299.231	-39.3645	289.087	-1.97358	263.232	-25.2108	263.518	-36.157	252.712	-35.2127	294.134	-12.2741	286.499	-23.2419	240.943
91979	-28.3604	299.47	-39.5664	289.274	-2.16511	263.39	-25.4592	263.511	-36.3905	252.607	-35.3878	294.35	-12.3507	286.741	-23.415	240.749
91980	-28.4929	299.709	-39.7681	289.463	-2.35671	263.549	-25.7075	263.504	-36.6239	252.501	-35.5626	294.567	-12.4272	286.983	-23.5877	240.554
91981	-28.625	299.948	-39.9695	289.652	-2.54836	263.707	-25.9559	263.497	-36.8572	252.394	-35.737	294.785	-12.5035	287.225	-23.76	240.359
91982	-28.7569	300.188	-40.1707	289.843	-2.74008	263.865	-26.2042	263.489	-37.0904	252.287	-35.9112	295.003	-12.5798	287.467	-23.9321	240.163
91983	-28.8884	300.429	-40.3717	290.034	-2.93185	264.023	-26.4526	263.481	-37.3234	252.178	-36.085	295.223	-12.656	287.709	-24.1038	239.966
91984	-29.0196	300.67	-40.5724	290.227	-3.12368	264.181	-26.701	263.473	-37.5562	252.069	-36.2586	295.443	-12.732	287.952	-24.2752	239.769
91985	-29.1505	300.912	-40.7729	290.42	-3.31556	264.339	-26.9493	263.465	-37.7889	251.959	-36.4318	295.664	-12.808	288.194	-24.4462	239.571
91986	-29.281	301.154	-40.9731	290.615	-3.50749	264.498	-27.1977	263.457	-38.0215	251.848	-36.6047	295.886	-12.8838	288.437	-24.6169	239.372
91987	-29.4112	301.397	-41.173	290.811	-3.69948	264.656	-27.446	263.449	-38.254	251.737	-36.7773	296.109	-12.9596	288.68	-24.7872	239.173
91988	-29.5411	301.64	-41.3727	291.007	-3.89151	264.813	-27.6944	263.44	-38.4862	251.624	-36.9495	296.333	-13.0352	288.923	-24.9572	238.974
91989	-29.6706	301.884	-41.5722	291.205	-4.08359	264.971	-27.9427	263.431	-38.7184	251.511	-37.1214	296.558	-13.1107	289.166	-25.1268	238.773
91990	-29.7998	302.128	-41.7713	291.404	-4.27573	265.129	-28.191	263.422	-38.9503	251.397	-37.293	296.783	-13.1861	289.409	-25.2961	238.572
91991	-29.9287	302.373	-41.9702	291.604	-4.4679	265.287	-28.4394	263.413	-39.1821	251.281	-37.4642	297.01	-13.2614	289.652	-25.465	238.37
91992	-30.0572	302.619	-42.1688	291.805	-4.66012	265.445	-28.6877	263.404	-39.4138	251.165	-37.6351	297.238	-13.3366	289.895	-25.6335	238.168
91993	-30.1853	302.865	-42.3672	292.007	-4.85238	265.603	-28.936	263.394	-39.6453	251.048	-37.8056	297.466	-13.4117	290.139	-25.8016	237.965
91994	-30.3131	303.112	-42.5652	292.211	-5.04468	265.761	-29.1843	263.384	-39.8766	250.93	-37.9758	297.695	-13.4866	290.382	-25.9694	237.761
91995	-30.4405	303.359	-42.763	292.415	-5.23702	265.919	-29.4326	263.375	-40.1078	250.811	-38.1456	297.926	-13.5614	290.626	-26.1369	237.557
91996	-30.5676	303.607	-42.9604	292.621	-5.4294	266.077	-29.6809	263.364	-40.3388	250.692	-38.315	298.157	-13.6362	290.87	-26.3039	237.352
91997	-30.6943	303.855	-43.1576	292.828	-5.62181	266.235	-29.9292	263.354	-40.5696	250.571	-38.4841	298.389	-13.7107	291.114	-26.4705	237.146
91998	-30.8206	304.104	-43.3545	293.036	-5.81427	266.393	-30.1775	263.344	-40.8003	250.449	-38.6528	298.623	-13.7852	291.358	-26.6368	236.94
91999	-30.9466	304.354	-43.551	293.245	-6.00675	266.55	-30.4258	263.333	-41.0308	250.326	-38.8212	298.857	-13.8596	291.602	-26.8027	236.733
92000	-31.0721	304.604	-43.7473	293.456	-6.19927	266.708	-30.6741	263.322	-41.2611	250.202	-38.9891	299.092	-13.9338	291.846	-26.9682	236.525
92001	-31.1973	304.854	-43.9432	293.668	-6.39181	266.866	-30.9224	263.311	-41.4912	250.077	-39.1567	299.329	-14.0078	292.091	-27.1333	236.316
92002	-31.3222	305.106	-44.1388	293.881	-6.58439	267.024	-31.1707	263.3	-41.7212	249.952	-39.3239	299.566	-14.0818	292.335	-27.298	236.107
92003	-31.4466	305.358	-44.3342	294.096	-6.77699	267.182	-31.4189	263.288	-41.9509	249.825	-39.4907	299.804	-14.1556	292.58	-27.4623	235.897
92004	-31.5706	305.61	-44.5291	294.311	-6.96962	267.34	-31.6672	263.277	-42.1805	249.697	-39.6571	300.044	-14.2293	292.824	-27.6261	235.687
92005	-31.6943	305.863	-44.7238	294.528	-7.16228	267.498	-31.9155	263.265	-42.4099	249.568	-39.8231	300.284	-14.3029	293.069	-27.7896	235.475
92006	-31.8175	306.117	-44.9181	294.747	-7.35495	267.657	-32.1637	263.253	-42.6391	249.437	-39.9886	300.526	-14.3763	293.314	-27.9527	235.263
92007	-31.9404	306.372	-45.112	294.966	-7.54765	267.815	-32.412	263.24	-42.8681	249.306	-40.1538	300.768	-14.4496	293.559	-28.1153	235.05
92008	-32.0628	306.627	-45.3056	295.187	-7.74037	267.973	-32.6602	263.228	-43.0969	249.174	-40.3185	301.012	-14.5228	293.805	-28.2775	234.837
92009	-32.1849	306.882	-45.4989	295.41	-7.93311	268.131	-32.9084	263.215	-43.3255	249.04	-40.4829	301.257	-14.5958	294.05	-28.4393	234.623
92010	-32.3065	307.138	-45.6918	295.634	-8.12587	268.289	-33.1567	263.202	-43.5539	248.905	-40.6468	301.502	-14.6687	294.296	-28.6007	234.407
92011	-32.4277	307.395	-45.8843	295.859	-8.31864	268.448	-33.4049	263.189	-43.7821	248.769	-40.8102	301.749	-14.7414	294.541	-28.7616	234.192
92012	-32.5485	307.652	-46.0765	296.086	-8.51142	268.606	-33.6531	263.176	-44.0101	248.632	-40.9733	301.998	-14.814	294.787	-28.9221	233.975
92013	-32.6689	307.91	-46.2683	296.314	-8.70422	268.765	-33.9013	263.162	-44.2378	248.494	-41.1358	302.247	-14.8865	295.033	-29.0821	233.758
92014	-32.7889	308.169	-46.4597	296.543	-8.89703	268.923	-34.1495	263.149	-44.4654	248.354	-41.298	302.497	-14.9588	295.279	-29.2418	233.54
92015	-32.9084	308.428	-46.6507	296.774	-9.08986	269.082	-34.3977	263.135	-44.6927	248.214	-41.4597	302.748	-15.0309	295.525	-29.4009	233.321
92016	-33.0275	308.688	-46.8413	297.007	-9.28269	269.241	-34.6459	263.12	-44.9198	248.071	-41.6209	303.001	-15.1029	295.771	-29.5596	233.101
92017	-33.1462	308.949	-47.0316	297.241	-9.47552	269.399	-34.8941	263.106	-45.1467	247.928	-41.7817	303.255	-15.1748	296.017	-29.7179	232.881
92018	-33.2644	309.21	-47.2214	297.476	-9.66836	269.558	-35.1422	263.091	-45.3733	247.783	-41.9419	303.51	-15.2465	296.264	-29.8757	232.66
92019	-33.3822	309.472	-47.4109	297.714	-9.86121	269.717	-35.3904	263.076	-45.5997	247.637	-42.1018	303.766	-15.3181	296.511	-30.033	232.438
92020	-33.4996	309.734	-47.5999	297.952	-10.0541	269.876	-35.6385	263.061	-45.8259	247.49	-42.2611	304.023	-15.3895	296.757	-30.1899	232.215
92021	-33.6165	309.997	-47.7885	298.193	-10.2469	270.035	-35.8867	263.045	-46.0518	247.341	-42.42	304.281	-15.4607	297.004	-30.3463	231.992
92022	-33.733	310.261	-47.9766	298.435	-10.4398	270.195	-36.1348	263.03	-46.2775	247.191	-42.5783	304.541	-15.5318	297.252	-30.5022	231.767
92023	-33.849	310.526	-48.1644	298.678	-10.6326	270.354	-36.383	263.014	-46.503	247.04	-42.7362	304.802	-15.6027	297.499	-30.6576	231.542
92024	-33.9645	310.791	-48.3517	298.923	-10.8255	270.513	-36.6311	262.997	-46.7282	246.887	-42.8936	305.064	-15.6735	297.746	-30.8126	231.316
92025	-34.0796	311.056	-48.5385	299.17	-11.0183	270.673	-36.8792	262.981	-46.9531	246.733	-43.0505	305.328	-15.7441	297.993	-30.967	231.089
92026	-34.1942	311.323	-48.7249	299.419	-11.2111	270.833	-37.1273	262.964	-47.1778	246.577	-43.2068	305.592	-15.8146	298.241	-31.121	230.862
92027	-34.3083	311.59	-48.9109	299.669	-11.404	270.992	-37.3754	262.947	-47.4022	246.419	-43.3626	305.858	-15.8848	298.489	-31.2745	230.633
92028	-34.422	311.857	-49.0964	299.921	-11.5968	271.152	-37.6235	262.93	-47.6263	246.261	-43.5179	306.125	-15.955	298.737	-31.4274	230.404
92029	-34.5352	312.126	-49.2814	300.175	-11.7896	271.312	-37.8716	262.912	-47.8501	246.1	-43.6727	306.394	-16.0249	298.985	-31.5799	230.174
92030	-34.6479	312.395	-49.4659	300.431	-11.9824	271.473	-38.1196	262.895	-48.0737	245.939	-43.827	306.663	-16.0947	299.233	-31.7319	229.943
92031	-34.7601	312.664	-49.65	300.688	-12.1752	271.633	-38.3677	262.877	-48.297	245.775	-43.9807	306.934	-16.1643	299.481	-31.8833	229.711
92032	-34.8719	312.935	-49.8335	300.947	-12.3679	271.793	-38.6157	262.858	-48.52	245.61	-44.1338	307.206	-16.2338	299.729	-32.0342	229.478
92033	-34.9831	313.206	-50.0166	301.208	-12.5607	271.954	-38.8638	262.839	-48.7428	245.443	-44.2864	307.48	-16.303	299.978	-32.1846	229.245
92034	-35.0939	313.477	-50.1991	301.471	-12.7534	272.114	-39.1118	262.821	-48.9652	245.275	-44.4385	307.755	-16.3721	300.227	-32.3345	229.011
92035	-35.2041	313.75	-50.3811	301.736	-12.9461	272.275	-39.3598	262.801	-49.1873	245.105	-44.59	308.031	-16.441	300.476	-32.4838	228.775
92036	-35.3139	314.023	-50.5626	302.002	-13.1388	272.436	-39.6078	262.782	-49.4091	244.933	-44.7409	308.309	-16.5098	300.725	-32.6326	228.539
92037	-35.4231	314.296	-50.7436	302.271	-13.3314	272.597	-39.8558	262.762	-49.6306	244.76	-44.8912	308.588	-16.5783	300.974	-32.7809	228.302
92038	-35.5319	314.571	-50.9241	302.541	-13.5241	272.759	-40.1038	262.742	-49.8518	244.585	-45.0409	308.868	-16.6467	301.223	-32.9286	228.065
92039	-35.6401	314.846	-51.104	302.814	-13.7167	272.92	-40.3518	262.721	-50.0727	244.408	-45.19	309.149	-16.7149	301.472	-33.0758	227.826
92040	-35.7478	315.121	-51.2833	303.088	-13.9093	273.082	-40.5998	262.701	-50.2932	244.229	-45.3386	309.433	-16.7829	301.722	-33.2224	227.586
92041	-35.855	315.398	-51.4621	303.365	-14.1018	273.244	-40.8477	262.68	-50.5134	244.048	-45.4865	309.717	-16.8508	301.972	-33.3685	227.346
92042	-35.9617	315.675	-51.6403	303.643	-14.2944	273.406	-41.0957	262.658	-50.7333	243.866	-45.6339	310.003	-16.9184	302.221	-33.514	227.104
92043	-36.0678	315.953	-51.8179	303.924	-14.4869	273.568	-41.3436	262.637	-50.9528	243.682	-45.7806	310.29	-16.9859	302.471	-33.6589	226.862
92044	-36.1734	316.231	-51.995	304.206	-14.6793	273.73	-41.5915	262.615	-51.172	243.495	-45.9267	310.578	-17.0532	302.722	-33.8033	226.619
92045	-36.2784	316.51	-52.1714	304.491	-14.8717	273.893	-41.8394	262.592	-51.3908	243.307	-46.0721	310.868	-17.1203	302.972	-33.947	226.375
92046	-36.383	316.79	-52.3473	304.778	-15.0641	274.055	-42.0873	262.57	-51.6093	243.117	-46.2169	311.16	-17.1872	303.222	-34.0902	226.13
92047	-36.487	317.07	-52.5225	305.067	-15.2565	274.218	-42.3352	262.547	-51.8274	242.925	-46.3611	311.453	-17.2539	303.473	-34.2328	225.884
92048	-36.5904	317.352	-52.6971	305.358	-15.4488	274.382	-42.5831	262.523	-52.0451	242.731	-46.5046	311.747	-17.3204	303.724	-34.3749	225.637
92049	-36.6933	317.634	-52.8711	305.651	-15.641	274.545	-42.8309	262.5	-52.2624	242.534	-46.6475	312.043	-17.3867	303.974	-34.5163	225.389
92050	-36.7956	317.916	-53.0444	305.947	-15.8333	274.708	-43.0788	262.475	-52.4794	242.336	-46.7897	312.34	-17.4528	304.226	-34.6571	225.141
92051	-36.8974	318.199	-53.2171	306.245	-16.0254	274.872	-43.3266	262.451	-52.6959	242.135	-46.9312	312.639	-17.5188	304.477	-34.7973	224.891
92052	-36.9985	318.483	-53.3891	306.545	-16.2176	275.036	-43.5744	262.426	-52.9121	241.933	-47.072	312.939	-17.5845	304.728	-34.9369	224.641
92053	-37.0992	318.768	-53.5604	306.847	-16.4096	275.2	-43.8222	262.401	-53.1278	241.728	-47.2122	313.24	-17.65	304.979	-35.0759	224.389
92054	-37.1992	319.053	-53.7311	307.152	-16.6017	275.365	-44.07	262.375	-53.3431	241.52	-47.3516	313.544	-17.7153	305.231	-35.2142	224.137
92055	-37.2987	319.339	-53.9011	307.459	-16.7936	275.529	-44.3178	262.349	-53.558	241.311	-47.4904	313.848	-17.7805	305.483	-35.352	223.883
92056	-37.3976	319.626	-54.0704	307.768	-16.9856	275.694	-44.5655	262.323	-53.7725	241.099	-47.6284	314.154	-17.8454	305.735	-35.4891	223.629
92057	-37.496	319.913	-54.2389	308.08	-17.1774	275.859	-44.8133	262.296	-53.9866	240.885	-47.7657	314.462	-17.9101	305.987	-35.6255	223.374
92058	-37.5937	320.202	-54.4068	308.394	-17.3693	276.025	-45.061	262.269	-54.2001	240.669	-47.9023	314.771	-17.9746	306.239	-35.7614	223.118
92059	-37.6908	320.49	-54.5739	308.71	-17.561	276.19	-45.3087	262.242	-54.4133	240.45	-48.0382	315.082	-18.0389	306.491	-35.8965	222.86
92060	-37.7874	320.78	-54.7403	309.029	-17.7527	276.356	-45.5564	262.214	-54.6259	240.228	-48.1733	315.394	-18.103	306.744	-36.0311	222.602
92061	-37.8833	321.07	-54.9059	309.351	-17.9443	276.522	-45.8041	262.185	-54.8381	240.005	-48.3077	315.708	-18.1668	306.997	-36.1649	222.343
92062	-37.9787	321.361	-55.0707	309.675	-18.1359	276.689	-46.0517	262.157	-55.0498	239.778	-48.4413	316.024	-18.2305	307.249	-36.2981	222.083
92063	-38.0734	321.653	-55.2348	310.002	-18.3274	276.856	-46.2994	262.127	-55.2611	239.549	-48.5742	316.341	-18.2939	307.502	-36.4307	221.822
92064	-38.1676	321.945	-55.3981	310.331	-18.5188	277.022	-46.547	262.098	-55.4718	239.317	-48.7062	316.659	-18.3572	307.755	-36.5626	221.56
92065	-38.2611	322.238	-55.5606	310.663	-18.7102	277.19	-46.7946	262.067	-55.682	239.083	-48.8376	316.979	-18.4202	308.009	-36.6937	221.297
92066	-38.354	322.532	-55.7223	310.997	-18.9015	277.357	-47.0422	262.037	-55.8917	238.846	-48.9681	317.301	-18.483	308.262	-36.8242	221.033
92067	-38.4463	322.826	-55.8831	311.334	-19.0927	277.525	-47.2898	262.006	-56.1009	238.606	-49.0978	317.624	-18.5455	308.516	-36.9541	220.768
92068	-38.5379	323.121	-56.0431	311.673	-19.2839	277.693	-47.5373	261.974	-56.3096	238.364	-49.2267	317.949	-18.6079	308.77	-37.0832	220.503
92069	-38.629	323.417	-56.2023	312.016	-19.4749	277.861	-47.7848	261.942	-56.5177	238.118	-49.3548	318.275	-18.67	309.023	-37.2116	220.236
92070	-38.7193	323.713	-56.3606	312.361	-19.6659	278.03	-48.0324	261.91	-56.7252	237.87	-49.4821	318.603	-18.7319	309.277	-37.3393	219.968
92071	-38.8091	324.01	-56.5181	312.709	-19.8569	278.199	-48.2799	261.877	-56.9322	237.619	-49.6086	318.933	-18.7936	309.532	-37.4663	219.699
92072	-38.8982	324.308	-56.6746	313.059	-20.0477	278.368	-48.5273	261.843	-57.1386	237.364	-49.7342	319.264	-18.8551	309.786	-37.5926	219.429
92073	-38.9867	324.607	-56.8303	313.412	-20.2384	278.538	-48.7748	261.809	-57.3444	237.107	-49.859	319.597	-18.9163	310.041	-37.7182	219.158
92074	-39.0745	324.906	-56.985	313.768	-20.4291	278.708	-49.0222	261.775	-57.5496	236.847	-49.9829	319.932	-18.9773	310.295	-37.843	218.887
92075	-39.1617	325.206	-57.1388	314.127	-20.6197	278.878	-49.2696	261.74	-57.7542	236.583	-50.1059	320.268	-19.0381	310.55	-37.9672	218.614
92076	-39.2482	325.507	-57.2917	314.489	-20.8102	279.048	-49.517	261.704	-57.9582	236.316	-50.2281	320.606	-19.0986	310.805	-38.0905	218.34
92077	-39.334	325.808	-57.4436	314.854	-21.0006	279.219	-49.7644	261.668	-58.1616	236.047	-50.3494	320.945	-19.1589	311.06	-38.2132	218.065
92078	-39.4192	326.11	-57.5946	315.221	-21.1909	279.39	-50.0117	261.631	-58.3643	235.773	-50.4699	321.286	-19.219	311.315	-38.3351	217.789
92079	-39.5037	326.413	-57.7446	315.591	-21.3811	279.562	-50.2591	261.594	-58.5663	235.497	-50.5894	321.629	-19.2788	311.571	-38.4562	217.512
92080	-39.5875	326.716	-57.8936	315.965	-21.5712	279.734	-50.5063	261.556	-58.7677	235.217	-50.708	321.973	-19.3384	311.826	-38.5766	217.235
92081	-39.6707	327.02	-58.0416	316.341	-21.7612	279.906	-50.7536	261.518	-58.9684	234.934	-50.8258	322.319	-19.3978	312.082	-38.6962	216.956
92082	-39.7532	327.325	-58.1886	316.721	-21.9511	280.079	-51.0009	261.479	-59.1684	234.647	-50.9425	322.667	-19.4569	312.338	-38.815	216.676
92083	-39.835	327.63	-58.3345	317.103	-22.141	280.252	-51.2481	261.439	-59.3677	234.356	-51.0584	323.016	-19.5158	312.594	-38.9331	216.395
92084	-39.9161	327.936	-58.4794	317.488	-22.3307	280.425	-51.4953	261.399	-59.5662	234.062	-51.1733	323.367	-19.5744	312.85	-39.0504	216.113
92085	-39.9965	328.243	-58.6232	317.877	-22.5203	280.599	-51.7425	261.358	-59.764	233.764	-51.2873	323.719	-19.6328	313.107	-39.1669	215.831
92086	-40.0762	328.55	-58.7659	318.268	-22.7098	280.773	-51.9896	261.317	-59.9611	233.463	-51.4003	324.074	-19.6909	313.363	-39.2826	215.547
92087	-40.1553	328.858	-58.9076	318.663	-22.8992	280.947	-52.2367	261.274	-60.1574	233.158	-51.5124	324.43	-19.7488	313.62	-39.3975	215.262
92088	-40.2336	329.167	-59.0481	319.06	-23.0884	281.122	-52.4838	261.231	-60.3529	232.849	-51.6235	324.787	-19.8065	313.877	-39.5115	214.976
92089	-40.3112	329.476	-59.1875	319.461	-23.2776	281.297	-52.7309	261.188	-60.5476	232.536	-51.7336	325.147	-19.8639	314.134	-39.6248	214.689
92090	-40.3881	329.786	-59.3258	319.865	-23.4667	281.473	-52.9779	261.144	-60.7415	232.218	-51.8427	325.507	-19.921	314.391	-39.7373	214.401
92091	-40.4643	330.097	-59.4629	320.272	-23.6556	281.649	-53.2249	261.099	-60.9345	231.897	-51.9508	325.87	-19.9779	314.648	-39.849	214.112
92092	-40.5398	330.408	-59.5988	320.682	-23.8444	281.825	-53.4719	261.053	-61.1267	231.572	-52.0579	326.234	-20.0345	314.906	-39.9598	213.822
92093	-40.6145	330.72	-59.7335	321.096	-24.0331	282.002	-53.7188	261.007	-61.318	231.243	-52.164	326.6	-20.0909	315.163	-40.0698	213.531
92094	-40.6885	331.033	-59.867	321.512	-24.2216	282.18	-53.9657	260.959	-61.5085	230.909	-52.269	326.968	-20.1471	315.421	-40.1789	213.239
92095	-40.7618	331.346	-59.9994	321.932	-24.4101	282.357	-54.2126	260.911	-61.698	230.571	-52.373	327.337	-20.203	315.679	-40.2872	212.946
92096	-40.8344	331.66	-60.1304	322.355	-24.5984	282.535	-54.4595	260.863	-61.8867	230.229	-52.476	327.708	-20.2586	315.937	-40.3947	212.653
92097	-40.9062	331.975	-60.2602	322.781	-24.7866	282.714	-54.7063	260.813	-62.0744	229.883	-52.5779	328.08	-20.3139	316.195	-40.5013	212.358
92098	-40.9773	332.29	-60.3888	323.211	-24.9746	282.893	-54.953	260.763	-62.2611	229.531	-52.6788	328.454	-20.369	316.454	-40.607	212.062
92099	-41.0476	332.606	-60.516	323.644	-25.1625	283.072	-55.1998	260.712	-62.4468	229.176	-52.7785	328.83	-20.4239	316.712	-40.7119	211.765
92100	-41.1172	332.922	-60.642	324.08	-25.3503	283.252	-55.4465	260.66	-62.6316	228.815	-52.8772	329.207	-20.4784	316.971	-40.8159	211.467
92101	-41.186	333.239	-60.7666	324.519	-25.5379	283.433	-55.6932	260.607	-62.8153	228.451	-52.9748	329.587	-20.5327	317.23	-40.919	211.168
92102	-41.2541	333.557	-60.8898	324.962	-25.7254	283.613	-55.9398	260.553	-62.998	228.081	-53.0713	329.967	-20.5868	317.489	-41.0212	210.868
92103	-41.3214	333.875	-61.0117	325.408	-25.9128	283.795	-56.1864	260.498	-63.1797	227.706	-53.1667	330.349	-20.6406	317.748	-41.1226	210.567
92104	-41.388	334.194	-61.1323	325.857	-26.1	283.977	-56.4329	260.443	-63.3602	227.327	-53.261	330.733	-20.6941	318.007	-41.223	210.265
92105	-41.4538	334.514	-61.2514	326.309	-26.287	284.159	-56.6794	260.386	-63.5397	226.942	-53.3542	331.119	-20.7473	318.267	-41.3226	209.962
92106	-41.5188	334.834	-61.3692	326.765	-26.4739	284.342	-56.9259	260.329	-63.718	226.552	-53.4462	331.506	-20.8003	318.527	-41.4212	209.658
92107	-41.5831	335.155	-61.4855	327.224	-26.6607	284.525	-57.1723	260.27	-63.8952	226.158	-53.5371	331.895	-20.8529	318.786	-41.5189	209.353
92108	-41.6466	335.476	-61.6003	327.687	-26.8473	284.709	-57.4187	260.21	-64.0712	225.758	-53.6268	332.285	-20.9054	319.046	-41.6157	209.047
92109	-41.7093	335.798	-61.7137	328.152	-27.0337	284.893	-57.6651	260.15	-64.2459	225.353	-53.7154	332.677	-20.9575	319.306	-41.7116	208.74
92110	-41.7712	336.12	-61.8256	328.621	-27.22	285.077	-57.9114	260.088	-64.4195	224.942	-53.8027	333.07	-21.0094	319.567	-41.8066	208.433
92111	-41.8323	336.444	-61.936	329.094	-27.4061	285.263	-58.1576	260.026	-64.5919	224.526	-53.8889	333.466	-21.061	319.827	-41.9006	208.124
92112	-41.8926	336.767	-62.0449	329.569	-27.5921	285.449	-58.4038	259.962	-64.7629	224.105	-53.974	333.862	-21.1123	320.088	-41.9937	207.814
92113	-41.9522	337.091	-62.1523	330.048	-27.7778	285.635	-58.65	259.897	-64.9327	223.678	-54.0578	334.26	-21.1633	320.348	-42.0858	207.503
92114	-42.0109	337.416	-62.258	330.53	-27.9635	285.822	-58.8961	259.831	-65.1011	223.245	-54.1404	334.66	-21.2141	320.609	-42.1769	207.192
92115	-42.0689	337.742	-62.3623	331.016	-28.1489	286.009	-59.1421	259.764	-65.2682	222.807	-54.2218	335.061	-21.2645	320.87	-42.2672	206.879
92116	-42.126	338.068	-62.4649	331.505	-28.3342	286.197	-59.3881	259.695	-65.4339	222.363	-54.302	335.464	-21.3147	321.131	-42.3564	206.565
92117	-42.1824	338.394	-62.5659	331.997	-28.5192	286.385	-59.6341	259.625	-65.5982	221.913	-54.3809	335.868	-21.3646	321.393	-42.4447	206.251
92118	-42.2379	338.721	-62.6653	332.492	-28.7042	286.575	-59.88	259.555	-65.7611	221.458	-54.4586	336.274	-21.4142	321.654	-42.532	205.935
92119	-42.2926	339.049	-62.763	332.99	-28.8889	286.764	-60.1258	259.482	-65.9224	220.996	-54.5351	336.681	-21.4636	321.916	-42.6183	205.619
92120	-42.3465	339.377	-62.8591	333.491	-29.0734	286.954	-60.3716	259.409	-66.0824	220.528	-54.6103	337.089	-21.5126	322.178	-42.7037	205.302
92121	-42.3996	339.705	-62.9535	333.996	-29.2578	287.145	-60.6173	259.334	-66.2407	220.054	-54.6842	337.499	-21.5614	322.44	-42.788	204.983
92122	-42.4519	340.034	-63.0462	334.504	-29.442	287.336	-60.863	259.257	-66.3975	219.575	-54.7569	337.911	-21.6098	322.702	-42.8713	204.664
92123	-42.5033	340.364	-63.1372	335.015	-29.6259	287.528	-61.1086	259.18	-66.5528	219.089	-54.8283	338.324	-21.658	322.964	-42.9537	204.344
92124	-42.5539	340.694	-63.2264	335.529	-29.8097	287.721	-61.3541	259.1	-66.7064	218.596	-54.8984	338.738	-21.7059	323.226	-43.035	204.023
92125	-42.6037	341.025	-63.3139	336.046	-29.9933	287.914	-61.5996	259.019	-66.8583	218.097	-54.9672	339.153	-21.7534	323.489	-43.1153	203.701
92126	-42.6526	341.356	-63.3996	336.566	-30.1767	288.108	-61.845	258.937	-67.0086	217.592	-55.0347	339.57	-21.8007	323.752	-43.1946	203.378
92127	-42.7007	341.687	-63.4836	337.089	-30.3599	288.302	-62.0903	258.853	-67.1571	217.081	-55.1008	339.989	-21.8477	324.014	-43.2729	203.055
92128	-42.748	342.019	-63.5657	337.615	-30.5428	288.497	-62.3356	258.768	-67.3039	216.563	-55.1657	340.408	-21.8944	324.277	-43.3502	202.73
92129	-42.7944	342.352	-63.646	338.144	-30.7256	288.693	-62.5808	258.681	-67.4489	216.038	-55.2292	340.829	-21.9408	324.54	-43.4264	202.405
92130	-42.84	342.685	-63.7245	338.676	-30.9081	288.889	-62.8259	258.592	-67.5921	215.507	-55.2914	341.251	-21.9869	324.804	-43.5016	202.078
92131	-42.8847	343.018	-63.8011	339.211	-31.0905	289.086	-63.0709	258.501	-67.7335	214.969	-55.3523	341.675	-22.0327	325.067	-43.5757	201.751
92132	-42.9286	343.352	-63.8758	339.748	-31.2726	289.284	-63.3158	258.409	-67.8729	214.425	-55.4118	342.099	-22.0782	325.331	-43.6487	201.423
92133	-42.9717	343.687	-63.9487	340.289	-31.4545	289.482	-63.5607	258.314	-68.0105	213.874	-55.4699	342.525	-22.1233	325.594	-43.7208	201.094
92134	-43.0138	344.022	-64.0196	340.832	-31.6362	289.681	-63.8055	258.218	-68.146	213.316	-55.5267	342.952	-22.1682	325.858	-43.7917	200.765
92135	-43.0552	344.357	-64.0887	341.377	-31.8176	289.88	-64.0502	258.12	-68.2796	212.751	-55.5821	343.381	-22.2128	326.122	-43.8616	200.434
92136	-43.0956	344.692	-64.1557	341.925	-31.9988	290.08	-64.2948	258.02	-68.4111	212.18	-55.6361	343.81	-22.2571	326.386	-43.9304	200.103
92137	-43.1352	345.028	-64.2209	342.476	-32.1798	290.281	-64.5394	257.918	-68.5405	211.602	-55.6887	344.24	-22.301	326.651	-43.9982	199.771
92138	-43.1739	345.365	-64.284	343.029	-32.3606	290.483	-64.7838	257.813	-68.6678	211.017	-55.74	344.672	-22.3447	326.915	-44.0648	199.438
92139	-43.2118	345.702	-64.3452	343.585	-32.5411	290.685	-65.0281	257.707	-68.793	210.425	-55.7898	345.105	-22.388	327.18	-44.1304	199.104
92140	-43.2488	346.039	-64.4044	344.143	-32.7213	290.888	-65.2724	257.598	-68.916	209.827	-55.8383	345.539	-22.431	327.444	-44.1949	198.769
92141	-43.2849	346.377	-64.4616	344.703	-32.9014	291.092	-65.5165	257.487	-69.0368	209.221	-55.8853	345.973	-22.4738	327.709	-44.2583	198.434
92142	-43.3201	346.715	-64.5168	345.266	-33.0811	291.296	-65.7605	257.373	-69.1553	208.609	-55.9309	346.409	-22.5162	327.974	-44.3206	198.098
92143	-43.3545	347.053	-64.5699	345.831	-33.2607	291.502	-66.0045	257.257	-69.2715	207.99	-55.9751	346.846	-22.5583	328.239	-44.3818	197.761
92144	-43.388	347.392	-64.621	346.397	-33.4399	291.708	-66.2483	257.139	-69.3853	207.364	-56.0179	347.284	-22.6	328.505	-44.4419	197.424
92145	-43.4206	347.731	-64.67	346.966	-33.619	291.914	-66.492	257.018	-69.4968	206.732	-56.0592	347.722	-22.6415	328.77	-44.5008	197.085
92146	-43.4523	348.07	-64.717	347.537	-33.7977	292.122	-66.7355	256.894	-69.6058	206.093	-56.0991	348.162	-22.6826	329.036	-44.5587	196.746
92147	-43.4832	348.41	-64.7618	348.11	-33.9762	292.33	-66.979	256.767	-69.7124	205.447	-56.1375	348.602	-22.7234	329.301	-44.6154	196.407
92148	-43.5131	348.75	-64.8046	348.685	-34.1544	292.539	-67.2223	256.638	-69.8165	204.795	-56.1745	349.043	-22.764	329.567	-44.671	196.066
92149	-43.5422	349.09	-64.8452	349.261	-34.3324	292.749	-67.4655	256.505	-69.918	204.136	-56.21	349.485	-22.8041	329.833	-44.7255	195.725
92150	-43.5704	349.431	-64.8838	349.839	-34.5101	292.959	-67.7085	256.37	-70.0169	203.47	-56.2441	349.928	-22.844	330.099	-44.7788	195.383
92151	-43.5976	349.772	-64.9202	350.418	-34.6875	293.171	-67.9514	256.231	-70.1133	202.799	-56.2767	350.372	-22.8835	330.365	-44.831	195.041
92152	-43.624	350.113	-64.9545	350.999	-34.8646	293.383	-68.1942	256.089	-70.207	202.121	-56.3079	350.816	-22.9227	330.632	-44.8821	194.698
92153	-43.6495	350.455	-64.9866	351.582	-35.0414	293.596	-68.4368	255.944	-70.298	201.436	-56.3376	351.261	-22.9616	330.898	-44.932	194.354
92154	-43.6741	350.797	-65.0166	352.165	-35.218	293.81	-68.6793	255.796	-70.3862	200.746	-56.3658	351.706	-23.0002	331.165	-44.9807	194.01
92155	-43.6978	351.139	-65.0444	352.75	-35.3942	294.024	-68.9216	255.643	-70.4717	200.049	-56.3925	352.153	-23.0384	331.432	-45.0283	193.665
92156	-43.7206	351.481	-65.07	353.336	-35.5702	294.24	-69.1637	255.487	-70.5544	199.347	-56.4177	352.599	-23.0763	331.699	-45.0748	193.32
92157	-43.7425	351.824	-65.0935	353.924	-35.7458	294.456	-69.4057	255.327	-70.6343	198.638	-56.4415	353.047	-23.1139	331.966	-45.1201	192.974
92158	-43.7635	352.166	-65.1148	354.512	-35.9212	294.673	-69.6475	255.164	-70.7113	197.925	-56.4637	353.495	-23.1511	332.233	-45.1642	192.627
92159	-43.7835	352.509	-65.1339	355.101	-36.0963	294.891	-69.8891	254.996	-70.7853	197.205	-56.4845	353.943	-23.1881	332.5	-45.2071	192.28
92160	-43.8027	352.853	-65.1508	355.69	-36.271	295.11	-70.1305	254.824	-70.8564	196.481	-56.5037	354.392	-23.2246	332.767	-45.2489	191.932
