Minute of Year [min]	Potsdam.Altitude [Deg]	Potsdam.Azimuth [Deg]	Shanghai.Altitude [Deg]	Shanghai.Azimuth [Deg]	Kaxgar.Altitude [Deg]	Kaxgar.Azimuth [Deg]	Singapur.Altitude [Deg]	Singapur.Azimuth [Deg]	Lima.Altitude [Deg]	Lima.Azimuth [Deg]	Denver.Altitude [Deg]	Denver.Azimuth [Deg]	Barrow.Altitude [Deg]	Barrow.Azimuth [Deg]	Melbourne.Altitude [Deg]	Melbourne.Azimuth [Deg]
504000	-60.9992	357.408	-82.0325	13.3119	-50.0708	280.506	-63.3581	213.044	-54.5663	182.463	-73.6304	2.29112	-40.5786	334.078	-28.7758	184.822
504001	-61.0055	357.881	-81.9804	14.9182	-50.2604	280.707	-63.4935	212.63	-54.5759	182.068	-73.6214	3.10411	-40.6135	334.376	-28.792	184.561
504002	-61.0105	358.354	-81.9225	16.5033	-50.45	280.91	-63.6275	212.212	-54.5839	181.673	-73.6097	3.91615	-40.648	334.675	-28.8072	184.3
504003	-61.0143	358.827	-81.859	18.0658	-50.6394	281.114	-63.7599	211.789	-54.5901	181.277	-73.5952	4.72702	-40.6821	334.974	-28.8216	184.039
504004	-61.0168	359.301	-81.79	19.6039	-50.8286	281.318	-63.8907	211.362	-54.5947	180.881	-73.578	5.53646	-40.7158	335.273	-28.835	183.777
504005	-61.0181	359.774	-81.7156	21.1165	-51.0177	281.524	-64.0199	210.93	-54.5976	180.485	-73.5582	6.34425	-40.7492	335.573	-28.8476	183.516
504006	-61.018	0.247288	-81.636	22.6024	-51.2067	281.731	-64.1475	210.494	-54.5988	180.089	-73.5356	7.15013	-40.7821	335.872	-28.8593	183.254
504007	-61.0168	0.720639	-81.5513	24.0605	-51.3955	281.94	-64.2734	210.054	-54.5984	179.693	-73.5104	7.9539	-40.8147	336.172	-28.87	182.993
504008	-61.0142	1.19394	-81.4617	25.49	-51.5842	282.149	-64.3977	209.608	-54.5962	179.298	-73.4825	8.75531	-40.8469	336.472	-28.8799	182.731
504009	-61.0104	1.66716	-81.3673	26.8904	-51.7728	282.36	-64.5203	209.159	-54.5923	178.902	-73.4519	9.55415	-40.8787	336.773	-28.8889	182.469
504010	-61.0054	2.14026	-81.2683	28.2611	-51.9612	282.572	-64.6411	208.705	-54.5868	178.506	-73.4188	10.3502	-40.9101	337.073	-28.8969	182.208
504011	-60.9991	2.61321	-81.1649	29.6018	-52.1494	282.785	-64.7602	208.246	-54.5795	178.11	-73.3829	11.1432	-40.9412	337.374	-28.9041	181.946
504012	-60.9915	3.08598	-81.0572	30.9123	-52.3375	282.999	-64.8775	207.783	-54.5706	177.715	-73.3445	11.9331	-40.9718	337.675	-28.9103	181.684
504013	-60.9827	3.55854	-80.9453	32.1924	-52.5254	283.215	-64.9931	207.315	-54.56	177.32	-73.3035	12.7195	-41.0021	337.976	-28.9156	181.422
504014	-60.9726	4.03085	-80.8294	33.4422	-52.7131	283.432	-65.1068	206.843	-54.5477	176.925	-73.26	13.5023	-41.032	338.278	-28.9201	181.16
504015	-60.9613	4.50288	-80.7097	34.6619	-52.9007	283.65	-65.2187	206.366	-54.5337	176.53	-73.2139	14.2813	-41.0614	338.579	-28.9236	180.898
504016	-60.9487	4.9746	-80.5862	35.8516	-53.0881	283.87	-65.3287	205.885	-54.5181	176.136	-73.1652	15.0564	-41.0905	338.881	-28.9262	180.636
504017	-60.9349	5.44597	-80.4593	37.0116	-53.2753	284.091	-65.4368	205.399	-54.5007	175.742	-73.1141	15.8273	-41.1192	339.183	-28.928	180.374
504018	-60.9198	5.91697	-80.3289	38.1424	-53.4624	284.313	-65.543	204.909	-54.4817	175.348	-73.0605	16.5938	-41.1475	339.485	-28.9288	180.112
504019	-60.9035	6.38756	-80.1952	39.2444	-53.6492	284.538	-65.6472	204.415	-54.4611	174.955	-73.0044	17.3559	-41.1754	339.788	-28.9287	179.85
504020	-60.8859	6.85771	-80.0584	40.318	-53.8359	284.763	-65.7495	203.916	-54.4387	174.563	-72.9459	18.1134	-41.2029	340.09	-28.9277	179.588
504021	-60.8671	7.32738	-79.9185	41.3638	-54.0224	284.99	-65.8498	203.413	-54.4147	174.171	-72.885	18.8661	-41.23	340.393	-28.9258	179.326
504022	-60.847	7.79656	-79.7758	42.3824	-54.2086	285.218	-65.948	202.905	-54.389	173.779	-72.8217	19.6139	-41.2567	340.696	-28.923	179.063
504023	-60.8257	8.2652	-79.6303	43.3744	-54.3947	285.448	-66.0442	202.393	-54.3617	173.388	-72.7561	20.3566	-41.283	340.999	-28.9193	178.801
504024	-60.8032	8.73328	-79.4822	44.3403	-54.5806	285.679	-66.1383	201.877	-54.3327	172.998	-72.6881	21.0942	-41.3089	341.303	-28.9147	178.54
504025	-60.7794	9.20076	-79.3315	45.2809	-54.7662	285.912	-66.2304	201.357	-54.3021	172.608	-72.6178	21.8264	-41.3344	341.606	-28.9092	178.278
504026	-60.7544	9.66762	-79.1783	46.1968	-54.9517	286.147	-66.3203	200.833	-54.2698	172.219	-72.5453	22.5533	-41.3595	341.91	-28.9028	178.016
504027	-60.7282	10.1338	-79.0229	47.0886	-55.1369	286.383	-66.408	200.304	-54.2358	171.831	-72.4705	23.2747	-41.3842	342.214	-28.8955	177.754
504028	-60.7008	10.5993	-78.8652	47.9571	-55.3219	286.621	-66.4936	199.772	-54.2002	171.443	-72.3935	23.9905	-41.4085	342.518	-28.8872	177.492
504029	-60.6722	11.0642	-78.7053	48.8029	-55.5066	286.86	-66.577	199.235	-54.163	171.056	-72.3143	24.7006	-41.4324	342.822	-28.8781	177.23
504030	-60.6423	11.5282	-78.5434	49.6266	-55.6912	287.101	-66.6582	198.694	-54.1242	170.671	-72.233	25.4049	-41.4559	343.126	-28.8681	176.969
504031	-60.6112	11.9915	-78.3795	50.4289	-55.8755	287.344	-66.7371	198.15	-54.0838	170.286	-72.1495	26.1035	-41.479	343.431	-28.8572	176.707
504032	-60.5789	12.454	-78.2138	51.2105	-56.0595	287.589	-66.8138	197.602	-54.0417	169.901	-72.0639	26.7961	-41.5016	343.736	-28.8453	176.445
504033	-60.5455	12.9157	-78.0462	51.972	-56.2433	287.835	-66.8882	197.05	-53.998	169.518	-71.9763	27.4828	-41.5239	344.04	-28.8326	176.184
504034	-60.5108	13.3765	-77.8769	52.714	-56.4268	288.083	-66.9603	196.494	-53.9527	169.136	-71.8867	28.1635	-41.5457	344.345	-28.819	175.923
504035	-60.4749	13.8365	-77.706	53.4372	-56.6101	288.333	-67.03	195.935	-53.9058	168.755	-71.795	28.8381	-41.5672	344.651	-28.8044	175.661
504036	-60.4378	14.2955	-77.5335	54.1421	-56.7931	288.585	-67.0974	195.373	-53.8573	168.374	-71.7014	29.5066	-41.5882	344.956	-28.789	175.4
504037	-60.3996	14.7537	-77.3594	54.8294	-56.9759	288.839	-67.1625	194.807	-53.8073	167.995	-71.6058	30.169	-41.6088	345.261	-28.7726	175.139
504038	-60.3602	15.2108	-77.1839	55.4995	-57.1583	289.094	-67.2251	194.237	-53.7556	167.617	-71.5083	30.8253	-41.629	345.567	-28.7554	174.878
504039	-60.3196	15.667	-77.007	56.1532	-57.3405	289.352	-67.2853	193.665	-53.7024	167.24	-71.409	31.4754	-41.6488	345.873	-28.7373	174.618
504040	-60.2778	16.1222	-76.8288	56.7909	-57.5224	289.611	-67.3431	193.089	-53.6476	166.864	-71.3077	32.1193	-41.6681	346.179	-28.7183	174.357
504041	-60.2349	16.5763	-76.6492	57.4132	-57.704	289.873	-67.3984	192.511	-53.5912	166.489	-71.2047	32.757	-41.6871	346.485	-28.6984	174.096
504042	-60.1908	17.0294	-76.4685	58.0205	-57.8853	290.137	-67.4513	191.93	-53.5333	166.115	-71.0999	33.3885	-41.7056	346.791	-28.6776	173.836
504043	-60.1456	17.4814	-76.2865	58.6133	-58.0663	290.402	-67.5017	191.345	-53.4739	165.743	-70.9933	34.0138	-41.7238	347.097	-28.6558	173.576
504044	-60.0992	17.9323	-76.1034	59.1922	-58.247	290.67	-67.5496	190.759	-53.4129	165.371	-70.885	34.6328	-41.7415	347.404	-28.6332	173.316
504045	-60.0517	18.3821	-75.9192	59.7576	-58.4273	290.94	-67.5949	190.169	-53.3503	165.001	-70.775	35.2457	-41.7587	347.71	-28.6097	173.056
504046	-60.0031	18.8308	-75.7339	60.31	-58.6073	291.212	-67.6377	189.578	-53.2863	164.633	-70.6633	35.8524	-41.7756	348.017	-28.5854	172.796
504047	-59.9533	19.2783	-75.5477	60.8497	-58.7871	291.487	-67.678	188.984	-53.2208	164.265	-70.5499	36.453	-41.792	348.324	-28.5601	172.536
504048	-59.9024	19.7246	-75.3605	61.3772	-58.9664	291.763	-67.7157	188.387	-53.1537	163.899	-70.435	37.0474	-41.8081	348.63	-28.5339	172.277
504049	-59.8503	20.1697	-75.1723	61.893	-59.1454	292.042	-67.7509	187.789	-53.0851	163.535	-70.3185	37.6356	-41.8237	348.938	-28.5069	172.018
504050	-59.7972	20.6136	-74.9833	62.3973	-59.3241	292.323	-67.7834	187.189	-53.0151	163.171	-70.2004	38.2178	-41.8389	349.245	-28.479	171.759
504051	-59.743	21.0562	-74.7933	62.8906	-59.5024	292.607	-67.8134	186.588	-52.9436	162.809	-70.0808	38.7939	-41.8536	349.552	-28.4502	171.5
504052	-59.6876	21.4976	-74.6026	63.3732	-59.6803	292.893	-67.8407	185.984	-52.8706	162.449	-69.9597	39.364	-41.868	349.859	-28.4204	171.241
504053	-59.6312	21.9377	-74.4111	63.8455	-59.8579	293.181	-67.8654	185.379	-52.7961	162.09	-69.8371	39.9281	-41.8819	350.167	-28.3899	170.983
504054	-59.5737	22.3765	-74.2187	64.3079	-60.035	293.472	-67.8875	184.773	-52.7202	161.732	-69.7131	40.4862	-41.8954	350.474	-28.3584	170.725
504055	-59.5151	22.814	-74.0257	64.7605	-60.2118	293.765	-67.907	184.166	-52.6428	161.376	-69.5877	41.0384	-41.9084	350.782	-28.3261	170.467
504056	-59.4554	23.2501	-73.8319	65.2038	-60.3882	294.061	-67.9238	183.557	-52.564	161.021	-69.4609	41.5848	-41.9211	351.09	-28.2928	170.209
504057	-59.3947	23.685	-73.6375	65.6381	-60.5642	294.36	-67.9379	182.948	-52.4838	160.668	-69.3327	42.1253	-41.9333	351.398	-28.2587	169.951
504058	-59.3329	24.1184	-73.4423	66.0636	-60.7397	294.661	-67.9494	182.338	-52.4021	160.317	-69.2032	42.66	-41.9451	351.706	-28.2238	169.694
504059	-59.2701	24.5505	-73.2466	66.4806	-60.9148	294.965	-67.9583	181.727	-52.3191	159.966	-69.0724	43.189	-41.9564	352.014	-28.1879	169.437
504060	-59.2062	24.9812	-73.0502	66.8894	-61.0895	295.272	-67.9645	181.116	-52.2346	159.618	-68.9403	43.7123	-41.9674	352.322	-28.1512	169.18
504061	-59.1412	25.4105	-72.8533	67.2903	-61.2638	295.581	-67.968	180.505	-52.1487	159.271	-68.8069	44.23	-41.9779	352.63	-28.1136	168.924
504062	-59.0753	25.8383	-72.6557	67.6835	-61.4376	295.893	-67.9688	179.893	-52.0615	158.926	-68.6723	44.7422	-41.988	352.938	-28.0752	168.667
504063	-59.0083	26.2648	-72.4576	68.0692	-61.6109	296.208	-67.967	179.282	-51.9729	158.582	-68.5365	45.2488	-41.9976	353.247	-28.0358	168.411
504064	-58.9403	26.6898	-72.259	68.4477	-61.7838	296.526	-67.9625	178.671	-51.883	158.24	-68.3994	45.75	-42.0069	353.555	-27.9957	168.155
504065	-58.8713	27.1133	-72.0599	68.8191	-61.9562	296.847	-67.9554	178.06	-51.7916	157.899	-68.2613	46.2458	-42.0157	353.863	-27.9546	167.9
504066	-58.8013	27.5354	-71.8602	69.1838	-62.1281	297.171	-67.9456	177.45	-51.699	157.56	-68.1219	46.7362	-42.024	354.172	-27.9127	167.645
504067	-58.7303	27.956	-71.6601	69.5419	-62.2995	297.498	-67.9331	176.84	-51.605	157.223	-67.9815	47.2213	-42.032	354.481	-27.8699	167.39
504068	-58.6583	28.3751	-71.4596	69.8936	-62.4704	297.828	-67.918	176.231	-51.5097	156.888	-67.84	47.7013	-42.0395	354.789	-27.8263	167.135
504069	-58.5853	28.7927	-71.2585	70.2392	-62.6407	298.161	-67.9002	175.623	-51.413	156.554	-67.6973	48.176	-42.0466	355.098	-27.7818	166.881
504070	-58.5114	29.2088	-71.0571	70.5787	-62.8106	298.498	-67.8798	175.016	-51.3151	156.222	-67.5537	48.6457	-42.0532	355.407	-27.7364	166.627
504071	-58.4365	29.6234	-70.8552	70.9124	-62.9799	298.837	-67.8568	174.41	-51.2159	155.891	-67.4089	49.1103	-42.0594	355.715	-27.6902	166.373
504072	-58.3606	30.0364	-70.653	71.2404	-63.1486	299.18	-67.8311	173.806	-51.1154	155.562	-67.2632	49.57	-42.0652	356.024	-27.6432	166.119
504073	-58.2838	30.448	-70.4503	71.563	-63.3168	299.526	-67.8028	173.203	-51.0136	155.235	-67.1165	50.0247	-42.0706	356.333	-27.5953	165.866
504074	-58.2061	30.858	-70.2472	71.8802	-63.4844	299.876	-67.7719	172.602	-50.9105	154.91	-66.9688	50.4746	-42.0755	356.642	-27.5465	165.613
504075	-58.1274	31.2664	-70.0438	72.1922	-63.6514	300.229	-67.7385	172.002	-50.8062	154.586	-66.8201	50.9197	-42.08	356.951	-27.4969	165.361
504076	-58.0478	31.6733	-69.8401	72.4992	-63.8178	300.586	-67.7024	171.405	-50.7007	154.264	-66.6706	51.3601	-42.084	357.26	-27.4465	165.109
504077	-57.9672	32.0787	-69.636	72.8014	-63.9836	300.946	-67.6637	170.809	-50.5939	153.944	-66.52	51.7958	-42.0877	357.569	-27.3952	164.857
504078	-57.8858	32.4825	-69.4315	73.0988	-64.1487	301.31	-67.6225	170.216	-50.4859	153.626	-66.3686	52.2269	-42.0909	357.878	-27.3431	164.605
504079	-57.8034	32.8847	-69.2268	73.3916	-64.3132	301.678	-67.5788	169.625	-50.3767	153.309	-66.2164	52.6534	-42.0937	358.187	-27.2902	164.354
504080	-57.7201	33.2853	-69.0217	73.6799	-64.4771	302.049	-67.5325	169.037	-50.2663	152.994	-66.0632	53.0755	-42.096	358.496	-27.2364	164.103
504081	-57.636	33.6844	-68.8163	73.9638	-64.6403	302.425	-67.4837	168.451	-50.1546	152.681	-65.9092	53.4932	-42.0979	358.805	-27.1818	163.853
504082	-57.551	34.0819	-68.6107	74.2435	-64.8028	302.803	-67.4325	167.868	-50.0418	152.37	-65.7544	53.9066	-42.0994	359.114	-27.1263	163.603
504083	-57.4651	34.4778	-68.4048	74.5192	-64.9647	303.187	-67.3787	167.288	-49.9279	152.06	-65.5988	54.3156	-42.1004	359.423	-27.07	163.353
504084	-57.3783	34.8721	-68.1985	74.7908	-65.1258	303.573	-67.3225	166.71	-49.8128	151.753	-65.4423	54.7204	-42.101	359.733	-27.013	163.104
504085	-57.2907	35.2648	-67.9921	75.0585	-65.2862	303.964	-67.2638	166.136	-49.6965	151.447	-65.2851	55.121	-42.1012	0.0416223	-26.955	162.855
504086	-57.2022	35.6559	-67.7853	75.3224	-65.4458	304.36	-67.2027	165.565	-49.579	151.143	-65.1271	55.5175	-42.1009	0.350751	-26.8963	162.606
504087	-57.1129	36.0454	-67.5784	75.5827	-65.6047	304.759	-67.1392	164.996	-49.4605	150.84	-64.9684	55.91	-42.1003	0.659877	-26.8367	162.358
504088	-57.0227	36.4333	-67.3712	75.8393	-65.7628	305.162	-67.0733	164.432	-49.3408	150.539	-64.809	56.2985	-42.0991	0.968996	-26.7763	162.11
504089	-56.9317	36.8197	-67.1637	76.0925	-65.9202	305.57	-67.005	163.87	-49.22	150.241	-64.6488	56.683	-42.0976	1.27811	-26.7151	161.862
504090	-56.8399	37.2044	-66.956	76.3422	-66.0767	305.982	-66.9344	163.313	-49.0981	149.944	-64.4879	57.0637	-42.0956	1.5872	-26.6531	161.615
504091	-56.7473	37.5875	-66.7481	76.5887	-66.2324	306.399	-66.8615	162.758	-48.9751	149.648	-64.3263	57.4406	-42.0932	1.89628	-26.5903	161.368
504092	-56.6538	37.9691	-66.54	76.8319	-66.3873	306.82	-66.7863	162.208	-48.851	149.355	-64.1641	57.8137	-42.0903	2.20534	-26.5267	161.122
504093	-56.5596	38.349	-66.3317	77.072	-66.5413	307.245	-66.7088	161.661	-48.7258	149.063	-64.0012	58.183	-42.087	2.51438	-26.4623	160.876
504094	-56.4646	38.7273	-66.1232	77.309	-66.6945	307.676	-66.6291	161.118	-48.5996	148.773	-63.8376	58.5488	-42.0833	2.82339	-26.3971	160.63
504095	-56.3688	39.1041	-65.9145	77.5431	-66.8468	308.111	-66.5471	160.579	-48.4723	148.485	-63.6734	58.9109	-42.0792	3.13237	-26.331	160.385
504096	-56.2722	39.4792	-65.7056	77.7742	-66.9981	308.55	-66.4629	160.044	-48.344	148.198	-63.5086	59.2695	-42.0746	3.44132	-26.2642	160.141
504097	-56.1748	39.8527	-65.4965	78.0025	-67.1485	308.995	-66.3765	159.513	-48.2147	147.914	-63.3432	59.6246	-42.0696	3.75023	-26.1966	159.896
504098	-56.0767	40.2247	-65.2873	78.2281	-67.298	309.444	-66.288	158.986	-48.0843	147.631	-63.1771	59.9763	-42.0642	4.05911	-26.1282	159.652
504099	-55.9778	40.5951	-65.0779	78.4509	-67.4465	309.898	-66.1973	158.463	-47.9529	147.35	-63.0105	60.3246	-42.0583	4.36794	-26.059	159.409
504100	-55.8782	40.9638	-64.8683	78.6712	-67.5941	310.358	-66.1045	157.944	-47.8205	147.071	-62.8433	60.6696	-42.052	4.67673	-25.989	159.166
504101	-55.7779	41.331	-64.6586	78.8888	-67.7406	310.822	-66.0096	157.429	-47.6871	146.793	-62.6755	61.0113	-42.0453	4.98547	-25.9182	158.923
504102	-55.6768	41.6966	-64.4486	79.104	-67.8861	311.292	-65.9127	156.919	-47.5527	146.517	-62.5072	61.3498	-42.0381	5.29416	-25.8467	158.681
504103	-55.575	42.0606	-64.2386	79.3167	-68.0305	311.766	-65.8137	156.413	-47.4173	146.243	-62.3384	61.6851	-42.0305	5.6028	-25.7743	158.439
504104	-55.4724	42.4231	-64.0284	79.5271	-68.1739	312.247	-65.7127	155.911	-47.281	145.971	-62.169	62.0172	-42.0225	5.91137	-25.7013	158.198
504105	-55.3692	42.7839	-63.818	79.7351	-68.3162	312.732	-65.6097	155.414	-47.1437	145.701	-61.9991	62.3463	-42.014	6.21989	-25.6274	157.957
504106	-55.2652	43.1432	-63.6076	79.9409	-68.4574	313.223	-65.5048	154.921	-47.0055	145.432	-61.8287	62.6724	-42.0052	6.52834	-25.5527	157.716
504107	-55.1606	43.501	-63.397	80.1445	-68.5974	313.719	-65.3979	154.433	-46.8663	145.165	-61.6577	62.9954	-41.9959	6.83673	-25.4773	157.476
504108	-55.0552	43.8571	-63.1862	80.3458	-68.7362	314.221	-65.2891	153.949	-46.7262	144.9	-61.4863	63.3156	-41.9861	7.14504	-25.4011	157.237
504109	-54.9492	44.2117	-62.9754	80.5451	-68.8739	314.728	-65.1784	153.469	-46.5851	144.636	-61.3145	63.6328	-41.976	7.45329	-25.3242	156.998
504110	-54.8425	44.5648	-62.7644	80.7424	-69.0104	315.241	-65.0659	152.994	-46.4432	144.375	-61.1421	63.9472	-41.9654	7.76145	-25.2465	156.759
504111	-54.7352	44.9163	-62.5533	80.9376	-69.1456	315.76	-64.9515	152.524	-46.3003	144.114	-60.9693	64.2588	-41.9544	8.06954	-25.168	156.521
504112	-54.6272	45.2663	-62.342	81.1309	-69.2796	316.284	-64.8353	152.058	-46.1566	143.856	-60.796	64.5676	-41.9429	8.37754	-25.0888	156.283
504113	-54.5185	45.6147	-62.1307	81.3222	-69.4123	316.815	-64.7173	151.596	-46.0119	143.599	-60.6223	64.8738	-41.931	8.68546	-25.0089	156.046
504114	-54.4091	45.9616	-61.9193	81.5117	-69.5437	317.351	-64.5976	151.139	-45.8664	143.345	-60.4482	65.1772	-41.9188	8.99329	-24.9282	155.809
504115	-54.2992	46.307	-61.7077	81.6993	-69.6737	317.893	-64.4761	150.686	-45.72	143.091	-60.2736	65.478	-41.906	9.30103	-24.8467	155.573
504116	-54.1886	46.6509	-61.4961	81.8852	-69.8024	318.442	-64.3529	150.238	-45.5727	142.84	-60.0986	65.7763	-41.8929	9.60867	-24.7645	155.337
504117	-54.0774	46.9932	-61.2844	82.0693	-69.9297	318.996	-64.228	149.795	-45.4246	142.59	-59.9232	66.0719	-41.8793	9.91622	-24.6816	155.101
504118	-53.9655	47.3341	-61.0725	82.2517	-70.0556	319.556	-64.1015	149.356	-45.2757	142.342	-59.7474	66.3651	-41.8653	10.2237	-24.5979	154.866
504119	-53.8531	47.6734	-60.8606	82.4324	-70.1801	320.123	-63.9733	148.922	-45.1259	142.095	-59.5712	66.6558	-41.8509	10.531	-24.5135	154.632
504120	-53.74	48.0113	-60.6486	82.6115	-70.303	320.696	-63.8435	148.492	-44.9753	141.85	-59.3946	66.9441	-41.8361	10.8382	-24.4284	154.398
504121	-53.6263	48.3476	-60.4365	82.789	-70.4245	321.275	-63.7121	148.066	-44.8239	141.607	-59.2177	67.2299	-41.8208	11.1454	-24.3425	154.164
504122	-53.5121	48.6825	-60.2243	82.9649	-70.5444	321.86	-63.5792	147.645	-44.6716	141.366	-59.0404	67.5135	-41.8051	11.4524	-24.2559	153.931
504123	-53.3972	49.0159	-60.012	83.1393	-70.6628	322.451	-63.4447	147.228	-44.5186	141.126	-58.8627	67.7947	-41.789	11.7593	-24.1686	153.699
504124	-53.2818	49.3479	-59.7997	83.3122	-70.7796	323.049	-63.3087	146.816	-44.3648	140.887	-58.6846	68.0736	-41.7725	12.0661	-24.0806	153.467
504125	-53.1658	49.6784	-59.5873	83.4837	-70.8948	323.654	-63.1712	146.409	-44.2101	140.651	-58.5063	68.3503	-41.7556	12.3727	-23.9918	153.235
504126	-53.0492	50.0074	-59.3748	83.6537	-71.0083	324.264	-63.0322	146.005	-44.0548	140.416	-58.3275	68.6247	-41.7382	12.6792	-23.9024	153.004
504127	-52.9321	50.335	-59.1622	83.8223	-71.1202	324.881	-62.8918	145.606	-43.8986	140.182	-58.1485	68.897	-41.7204	12.9857	-23.8122	152.773
504128	-52.8144	50.6611	-58.9496	83.9896	-71.2303	325.505	-62.7499	145.212	-43.7417	139.951	-57.9691	69.1671	-41.7022	13.2919	-23.7213	152.543
504129	-52.6961	50.9859	-58.7369	84.1555	-71.3387	326.135	-62.6067	144.821	-43.584	139.72	-57.7894	69.4352	-41.6836	13.5981	-23.6298	152.314
504130	-52.5774	51.3092	-58.5242	84.3201	-71.4454	326.771	-62.462	144.436	-43.4255	139.492	-57.6094	69.7011	-41.6646	13.9041	-23.5375	152.085
504131	-52.458	51.6311	-58.3113	84.4834	-71.5502	327.414	-62.316	144.054	-43.2664	139.264	-57.429	69.9651	-41.6452	14.21	-23.4445	151.856
504132	-52.3382	51.9516	-58.0985	84.6455	-71.6532	328.063	-62.1686	143.677	-43.1065	139.039	-57.2484	70.227	-41.6253	14.5157	-23.3508	151.628
504133	-52.2178	52.2707	-57.8856	84.8063	-71.7543	328.719	-62.02	143.303	-42.9458	138.815	-57.0675	70.4869	-41.605	14.8213	-23.2565	151.4
504134	-52.0969	52.5884	-57.6726	84.9659	-71.8536	329.381	-61.87	142.934	-42.7845	138.593	-56.8862	70.7448	-41.5843	15.1267	-23.1614	151.173
504135	-51.9755	52.9047	-57.4595	85.1244	-71.9509	330.05	-61.7188	142.57	-42.6224	138.372	-56.7047	71.0009	-41.5632	15.432	-23.0657	150.947
504136	-51.8536	53.2197	-57.2464	85.2817	-72.0462	330.725	-61.5663	142.209	-42.4597	138.152	-56.523	71.255	-41.5417	15.7371	-22.9692	150.72
504137	-51.7312	53.5332	-57.0333	85.4378	-72.1396	331.406	-61.4126	141.852	-42.2962	137.935	-56.3409	71.5074	-41.5198	16.0421	-22.8721	150.495
504138	-51.6083	53.8455	-56.8201	85.5929	-72.2309	332.094	-61.2576	141.5	-42.1321	137.718	-56.1586	71.7578	-41.4975	16.347	-22.7743	150.27
504139	-51.4849	54.1564	-56.6069	85.7469	-72.3202	332.788	-61.1015	141.151	-41.9673	137.504	-55.976	72.0065	-41.4747	16.6516	-22.6759	150.045
504140	-51.361	54.4659	-56.3937	85.8998	-72.4074	333.488	-60.9442	140.807	-41.8018	137.29	-55.7932	72.2534	-41.4516	16.9561	-22.5768	149.821
504141	-51.2366	54.7741	-56.1803	86.0516	-72.4925	334.195	-60.7857	140.466	-41.6356	137.078	-55.6101	72.4985	-41.428	17.2605	-22.477	149.597
504142	-51.1118	55.081	-55.967	86.2025	-72.5754	334.907	-60.626	140.13	-41.4688	136.868	-55.4267	72.7419	-41.4041	17.5647	-22.3765	149.375
504143	-50.9865	55.3866	-55.7536	86.3524	-72.6561	335.626	-60.4653	139.797	-41.3013	136.659	-55.2431	72.9837	-41.3797	17.8686	-22.2754	149.152
504144	-50.8607	55.6909	-55.5402	86.5012	-72.7346	336.35	-60.3035	139.468	-41.1332	136.452	-55.0593	73.2237	-41.3549	18.1725	-22.1736	148.93
504145	-50.7345	55.9939	-55.3267	86.6492	-72.8109	337.08	-60.1406	139.143	-40.9645	136.246	-54.8753	73.4621	-41.3298	18.4761	-22.0712	148.708
504146	-50.6078	56.2956	-55.1133	86.7961	-72.8849	337.817	-59.9766	138.821	-40.7951	136.041	-54.691	73.6989	-41.3042	18.7796	-21.9681	148.487
504147	-50.4807	56.596	-54.8997	86.9422	-72.9566	338.558	-59.8115	138.504	-40.6251	135.838	-54.5065	73.9342	-41.2782	19.0829	-21.8644	148.267
504148	-50.3532	56.8952	-54.6862	87.0874	-73.026	339.306	-59.6455	138.19	-40.4545	135.637	-54.3218	74.1678	-41.2518	19.386	-21.76	148.047
504149	-50.2252	57.1931	-54.4726	87.2317	-73.093	340.059	-59.4784	137.88	-40.2832	135.436	-54.1369	74.3999	-41.2251	19.6889	-21.6549	147.827
504150	-50.0968	57.4897	-54.259	87.3751	-73.1576	340.817	-59.3103	137.573	-40.1114	135.237	-53.9517	74.6305	-41.1979	19.9917	-21.5493	147.608
504151	-49.968	57.7851	-54.0454	87.5177	-73.2198	341.58	-59.1412	137.27	-39.9389	135.04	-53.7664	74.8596	-41.1703	20.2942	-21.4429	147.39
504152	-49.8387	58.0793	-53.8318	87.6594	-73.2796	342.349	-58.9712	136.971	-39.7659	134.844	-53.5808	75.0872	-41.1423	20.5966	-21.336	147.172
504153	-49.709	58.3722	-53.6181	87.8003	-73.3368	343.122	-58.8003	136.675	-39.5922	134.649	-53.3951	75.3133	-41.114	20.8987	-21.2284	146.955
504154	-49.5789	58.6639	-53.4044	87.9404	-73.3916	343.9	-58.6283	136.383	-39.418	134.456	-53.2092	75.5381	-41.0852	21.2007	-21.1202	146.738
504155	-49.4485	58.9545	-53.1907	88.0798	-73.4439	344.682	-58.4555	136.094	-39.2432	134.264	-53.0231	75.7614	-41.056	21.5025	-21.0114	146.522
504156	-49.3176	59.2438	-52.977	88.2184	-73.4936	345.469	-58.2818	135.808	-39.0679	134.073	-52.8368	75.9833	-41.0265	21.804	-20.902	146.306
504157	-49.1863	59.5319	-52.7632	88.3562	-73.5407	346.26	-58.1072	135.526	-38.8919	133.884	-52.6503	76.2039	-40.9965	22.1054	-20.7919	146.09
504158	-49.0547	59.8189	-52.5495	88.4933	-73.5853	347.056	-57.9317	135.247	-38.7155	133.696	-52.4636	76.4231	-40.9662	22.4065	-20.6812	145.876
504159	-48.9226	60.1047	-52.3357	88.6296	-73.6272	347.854	-57.7554	134.972	-38.5384	133.509	-52.2768	76.641	-40.9355	22.7075	-20.5699	145.661
504160	-48.7902	60.3893	-52.122	88.7653	-73.6665	348.657	-57.5782	134.7	-38.3608	133.324	-52.0898	76.8576	-40.9044	23.0082	-20.458	145.447
504161	-48.6574	60.6728	-51.9082	88.9002	-73.7031	349.463	-57.4002	134.43	-38.1827	133.14	-51.9027	77.073	-40.8729	23.3087	-20.3455	145.234
504162	-48.5242	60.9551	-51.6944	89.0345	-73.7371	350.272	-57.2213	134.165	-38.0041	132.957	-51.7153	77.287	-40.841	23.609	-20.2324	145.022
504163	-48.3907	61.2363	-51.4806	89.1681	-73.7683	351.084	-57.0417	133.902	-37.8249	132.776	-51.5279	77.4998	-40.8088	23.9091	-20.1186	144.809
504164	-48.2568	61.5164	-51.2668	89.3011	-73.7969	351.899	-56.8613	133.642	-37.6452	132.595	-51.3402	77.7114	-40.7761	24.209	-20.0043	144.598
504165	-48.1226	61.7953	-51.0529	89.4334	-73.8227	352.717	-56.6801	133.386	-37.465	132.416	-51.1524	77.9218	-40.7431	24.5086	-19.8894	144.387
504166	-47.988	62.0732	-50.8391	89.5651	-73.8458	353.536	-56.4981	133.132	-37.2842	132.239	-50.9645	78.131	-40.7097	24.8081	-19.7739	144.176
504167	-47.853	62.3499	-50.6253	89.6961	-73.8662	354.358	-56.3154	132.881	-37.103	132.062	-50.7764	78.339	-40.6759	25.1073	-19.6578	143.966
504168	-47.7178	62.6256	-50.4114	89.8266	-73.8838	355.181	-56.1319	132.634	-36.9212	131.887	-50.5882	78.5459	-40.6417	25.4062	-19.5411	143.756
504169	-47.5821	62.9001	-50.1976	89.9565	-73.8987	356.006	-55.9477	132.389	-36.739	131.713	-50.3999	78.7516	-40.6071	25.705	-19.4239	143.547
504170	-47.4462	63.1736	-49.9838	90.0857	-73.9107	356.832	-55.7628	132.147	-36.5562	131.54	-50.2114	78.9562	-40.5722	26.0035	-19.306	143.339
504171	-47.3099	63.4461	-49.7699	90.2145	-73.92	357.66	-55.5772	131.908	-36.373	131.369	-50.0228	79.1597	-40.5369	26.3018	-19.1876	143.13
504172	-47.1733	63.7174	-49.5561	90.3426	-73.9265	358.488	-55.3909	131.672	-36.1893	131.198	-49.834	79.3621	-40.5012	26.5998	-19.0686	142.923
504173	-47.0364	63.9878	-49.3423	90.4702	-73.9302	359.316	-55.204	131.439	-36.0051	131.029	-49.6452	79.5635	-40.4652	26.8976	-18.949	142.716
504174	-46.8992	64.2571	-49.1285	90.5973	-73.9312	0.144442	-55.0163	131.208	-35.8204	130.861	-49.4562	79.7638	-40.4288	27.1952	-18.8289	142.509
504175	-46.7616	64.5253	-48.9146	90.7238	-73.9293	0.973019	-54.828	130.981	-35.6353	130.695	-49.267	79.963	-40.392	27.4925	-18.7082	142.303
504176	-46.6238	64.7926	-48.7008	90.8499	-73.9246	1.80129	-54.6391	130.755	-35.4497	130.529	-49.0778	80.1613	-40.3548	27.7896	-18.587	142.098
504177	-46.4856	65.0588	-48.487	90.9754	-73.9172	2.62899	-54.4495	130.533	-35.2637	130.364	-48.8885	80.3585	-40.3173	28.0864	-18.4651	141.893
504178	-46.3471	65.324	-48.2732	91.1004	-73.907	3.45586	-54.2593	130.313	-35.0772	130.201	-48.699	80.5547	-40.2794	28.383	-18.3428	141.689
504179	-46.2084	65.5883	-48.0594	91.2249	-73.894	4.28165	-54.0684	130.095	-34.8902	130.039	-48.5095	80.75	-40.2412	28.6794	-18.2198	141.485
504180	-46.0694	65.8515	-47.8456	91.349	-73.8782	5.10609	-53.877	129.881	-34.7028	129.878	-48.3198	80.9443	-40.2026	28.9755	-18.0964	141.281
504181	-45.93	66.1138	-47.6319	91.4725	-73.8597	5.92893	-53.685	129.668	-34.515	129.718	-48.13	81.1376	-40.1636	29.2713	-17.9723	141.078
504182	-45.7904	66.3751	-47.4181	91.5957	-73.8384	6.74992	-53.4923	129.459	-34.3267	129.559	-47.9402	81.3301	-40.1242	29.5669	-17.8478	140.876
504183	-45.6506	66.6355	-47.2044	91.7183	-73.8144	7.56881	-53.2991	129.251	-34.1381	129.401	-47.7502	81.5216	-40.0845	29.8622	-17.7227	140.674
504184	-45.5104	66.8948	-46.9907	91.8406	-73.7876	8.38537	-53.1054	129.047	-33.9489	129.245	-47.5601	81.7122	-40.0445	30.1573	-17.597	140.473
504185	-45.37	67.1533	-46.7769	91.9624	-73.7581	9.19934	-52.911	128.844	-33.7594	129.089	-47.37	81.9019	-40.0041	30.4522	-17.4708	140.272
504186	-45.2293	67.4108	-46.5632	92.0837	-73.726	10.0105	-52.7161	128.644	-33.5694	128.935	-47.1797	82.0907	-39.9633	30.7467	-17.3441	140.071
504187	-45.0883	67.6674	-46.3496	92.2047	-73.6911	10.8186	-52.5207	128.446	-33.3791	128.782	-46.9894	82.2787	-39.9222	31.041	-17.2169	139.872
504188	-44.9471	67.9231	-46.1359	92.3253	-73.6536	11.6235	-52.3248	128.251	-33.1883	128.629	-46.799	82.4658	-39.8807	31.3351	-17.0891	139.672
504189	-44.8056	68.1778	-45.9222	92.4454	-73.6134	12.4249	-52.1283	128.058	-32.9971	128.478	-46.6085	82.652	-39.8389	31.6289	-16.9608	139.474
504190	-44.6639	68.4317	-45.7086	92.5652	-73.5706	13.2226	-51.9313	127.867	-32.8055	128.328	-46.4179	82.8375	-39.7967	31.9224	-16.8319	139.275
504191	-44.5219	68.6846	-45.495	92.6845	-73.5252	14.0165	-51.7338	127.678	-32.6135	128.179	-46.2273	83.0221	-39.7542	32.2156	-16.7026	139.077
504192	-44.3797	68.9367	-45.2814	92.8035	-73.4772	14.8062	-51.5358	127.492	-32.4212	128.031	-46.0366	83.2059	-39.7113	32.5086	-16.5728	138.88
504193	-44.2372	69.1879	-45.0678	92.9222	-73.4266	15.5917	-51.3373	127.307	-32.2284	127.883	-45.8458	83.389	-39.6681	32.8013	-16.4424	138.683
504194	-44.0945	69.4382	-44.8543	93.0404	-73.3735	16.3727	-51.1383	127.125	-32.0353	127.737	-45.6549	83.5712	-39.6245	33.0938	-16.3115	138.487
504195	-43.9516	69.6876	-44.6408	93.1584	-73.3179	17.1491	-50.9389	126.945	-31.8418	127.592	-45.464	83.7527	-39.5806	33.386	-16.1801	138.291
504196	-43.8084	69.9363	-44.4273	93.2759	-73.2598	17.9208	-50.739	126.767	-31.6479	127.448	-45.273	83.9335	-39.5364	33.6779	-16.0482	138.096
504197	-43.6651	70.184	-44.2138	93.3932	-73.1992	18.6874	-50.5386	126.591	-31.4536	127.305	-45.0819	84.1135	-39.4918	33.9695	-15.9159	137.901
504198	-43.5214	70.4309	-44.0004	93.5101	-73.1362	19.449	-50.3377	126.417	-31.2589	127.163	-44.8908	84.2927	-39.4469	34.2609	-15.783	137.707
504199	-43.3776	70.677	-43.7869	93.6266	-73.0708	20.2054	-50.1364	126.245	-31.0639	127.022	-44.6996	84.4712	-39.4016	34.5519	-15.6496	137.513
504200	-43.2336	70.9223	-43.5735	93.7429	-73.003	20.9564	-49.9347	126.075	-30.8686	126.882	-44.5083	84.6491	-39.356	34.8428	-15.5157	137.319
504201	-43.0893	71.1667	-43.3602	93.8588	-72.9328	21.702	-49.7326	125.907	-30.6729	126.743	-44.317	84.8262	-39.3101	35.1333	-15.3814	137.127
504202	-42.9448	71.4104	-43.1469	93.9745	-72.8603	22.4419	-49.53	125.741	-30.4768	126.605	-44.1257	85.0026	-39.2638	35.4235	-15.2465	136.934
504203	-42.8002	71.6532	-42.9335	94.0898	-72.7856	23.1761	-49.3269	125.577	-30.2804	126.467	-43.9343	85.1784	-39.2172	35.7135	-15.1112	136.742
504204	-42.6553	71.8953	-42.7203	94.2048	-72.7085	23.9045	-49.1235	125.415	-30.0836	126.331	-43.7428	85.3535	-39.1703	36.0032	-14.9754	136.551
504205	-42.5102	72.1365	-42.507	94.3196	-72.6293	24.627	-48.9197	125.254	-29.8865	126.196	-43.5513	85.5279	-39.1231	36.2926	-14.8391	136.36
504206	-42.3649	72.377	-42.2938	94.434	-72.5478	25.3435	-48.7155	125.096	-29.689	126.061	-43.3598	85.7017	-39.0755	36.5817	-14.7023	136.17
504207	-42.2195	72.6167	-42.0806	94.5482	-72.4642	26.054	-48.5108	124.939	-29.4912	125.928	-43.1682	85.8748	-39.0276	36.8705	-14.565	135.98
504208	-42.0738	72.8557	-41.8675	94.6622	-72.3784	26.7583	-48.3058	124.784	-29.2931	125.795	-42.9765	86.0473	-38.9794	37.1591	-14.4273	135.79
504209	-41.928	73.0939	-41.6544	94.7759	-72.2905	27.4564	-48.1004	124.631	-29.0946	125.663	-42.7849	86.2192	-38.9308	37.4473	-14.2891	135.601
504210	-41.7819	73.3313	-41.4413	94.8893	-72.2005	28.1483	-47.8946	124.48	-28.8958	125.533	-42.5932	86.3905	-38.882	37.7353	-14.1505	135.413
504211	-41.6357	73.568	-41.2283	95.0024	-72.1085	28.8339	-47.6885	124.33	-28.6967	125.403	-42.4014	86.5612	-38.8328	38.023	-14.0114	135.225
504212	-41.4893	73.804	-41.0153	95.1153	-72.0145	29.5131	-47.482	124.182	-28.4973	125.274	-42.2096	86.7313	-38.7833	38.3104	-13.8718	135.037
504213	-41.3428	74.0392	-40.8023	95.228	-71.9185	30.186	-47.2751	124.036	-28.2976	125.145	-42.0178	86.9008	-38.7335	38.5975	-13.7318	134.85
504214	-41.196	74.2738	-40.5894	95.3404	-71.8205	30.8525	-47.0679	123.891	-28.0975	125.018	-41.826	87.0697	-38.6833	38.8843	-13.5913	134.664
504215	-41.0491	74.5076	-40.3765	95.4527	-71.7206	31.5125	-46.8603	123.749	-27.8971	124.892	-41.6341	87.2381	-38.6329	39.1708	-13.4503	134.478
504216	-40.902	74.7407	-40.1637	95.5646	-71.6188	32.1661	-46.6524	123.607	-27.6965	124.766	-41.4422	87.4059	-38.5822	39.4571	-13.3089	134.292
504217	-40.7548	74.9731	-39.9509	95.6764	-71.5152	32.8132	-46.4441	123.468	-27.4955	124.642	-41.2503	87.5732	-38.5311	39.743	-13.1671	134.107
504218	-40.6074	75.2048	-39.7381	95.7879	-71.4098	33.4539	-46.2355	123.329	-27.2942	124.518	-41.0583	87.7399	-38.4797	40.0287	-13.0248	133.922
504219	-40.4599	75.4358	-39.5254	95.8993	-71.3026	34.0882	-46.0266	123.193	-27.0926	124.395	-40.8663	87.9061	-38.4281	40.314	-12.8821	133.738
504220	-40.3121	75.6662	-39.3127	96.0104	-71.1936	34.7159	-45.8173	123.058	-26.8908	124.273	-40.6743	88.0718	-38.3761	40.5991	-12.7389	133.554
504221	-40.1643	75.8959	-39.1001	96.1214	-71.0829	35.3373	-45.6078	122.924	-26.6886	124.151	-40.4823	88.2369	-38.3238	40.8838	-12.5953	133.371
504222	-40.0163	76.1249	-38.8875	96.2321	-70.9704	35.9522	-45.3979	122.792	-26.4861	124.031	-40.2903	88.4016	-38.2712	41.1683	-12.4513	133.188
504223	-39.8681	76.3533	-38.6749	96.3427	-70.8564	36.5607	-45.1877	122.662	-26.2834	123.911	-40.0983	88.5657	-38.2184	41.4525	-12.3069	133.006
504224	-39.7198	76.581	-38.4624	96.453	-70.7407	37.1628	-44.9772	122.533	-26.0804	123.792	-39.9062	88.7294	-38.1652	41.7363	-12.1619	132.824
504225	-39.5714	76.808	-38.25	96.5632	-70.6233	37.7586	-44.7664	122.405	-25.8771	123.674	-39.7141	88.8926	-38.1117	42.0199	-12.0166	132.642
504226	-39.4228	77.0345	-38.0376	96.6733	-70.5044	38.348	-44.5553	122.279	-25.6735	123.557	-39.5221	89.0553	-38.0579	42.3032	-11.8709	132.461
504227	-39.2741	77.2603	-37.8252	96.7831	-70.384	38.9311	-44.3439	122.155	-25.4696	123.44	-39.33	89.2175	-38.0039	42.5862	-11.7247	132.281
504228	-39.1253	77.4855	-37.6129	96.8928	-70.262	39.508	-44.1322	122.031	-25.2655	123.325	-39.1379	89.3793	-37.9495	42.8689	-11.5782	132.101
504229	-38.9763	77.71	-37.4006	97.0023	-70.1385	40.0786	-43.9203	121.909	-25.0611	123.21	-38.9458	89.5406	-37.8949	43.1512	-11.4312	131.921
504230	-38.8272	77.9339	-37.1884	97.1117	-70.0136	40.6431	-43.708	121.789	-24.8564	123.095	-38.7537	89.7015	-37.84	43.4333	-11.2837	131.742
504231	-38.678	78.1573	-36.9763	97.2209	-69.8872	41.2014	-43.4955	121.67	-24.6515	122.982	-38.5616	89.862	-37.7848	43.7151	-11.1359	131.563
504232	-38.5286	78.38	-36.7641	97.3299	-69.7595	41.7537	-43.2827	121.552	-24.4463	122.869	-38.3694	90.022	-37.7293	43.9966	-10.9877	131.385
504233	-38.3791	78.6022	-36.5521	97.4389	-69.6303	42.2999	-43.0697	121.436	-24.2408	122.757	-38.1773	90.1816	-37.6735	44.2778	-10.839	131.207
504234	-38.2296	78.8237	-36.3401	97.5476	-69.4998	42.8401	-42.8564	121.32	-24.0351	122.646	-37.9852	90.3408	-37.6174	44.5586	-10.69	131.029
504235	-38.0799	79.0447	-36.1281	97.6563	-69.368	43.3744	-42.6428	121.207	-23.8291	122.536	-37.7931	90.4995	-37.5611	44.8392	-10.5405	130.852
504236	-37.9301	79.2651	-35.9162	97.7648	-69.2349	43.9029	-42.429	121.094	-23.6229	122.426	-37.601	90.6579	-37.5044	45.1195	-10.3907	130.676
504237	-37.7801	79.485	-35.7044	97.8732	-69.1005	44.4255	-42.2149	120.983	-23.4164	122.317	-37.4089	90.8158	-37.4475	45.3995	-10.2405	130.5
504238	-37.6301	79.7042	-35.4926	97.9814	-68.9648	44.9423	-42.0006	120.873	-23.2097	122.209	-37.2168	90.9734	-37.3904	45.6791	-10.0898	130.324
504239	-37.48	79.923	-35.2809	98.0896	-68.8279	45.4535	-41.786	120.764	-23.0027	122.102	-37.0248	91.1306	-37.3329	45.9585	-9.9388	130.149
504240	-37.3298	80.1411	-35.0692	98.1976	-68.6899	45.959	-41.5712	120.656	-22.7955	121.995	-36.8327	91.2874	-37.2752	46.2376	-9.78738	129.974
504241	-37.1794	80.3588	-34.8576	98.3055	-68.5506	46.4589	-41.3561	120.55	-22.5881	121.889	-36.6406	91.4439	-37.2172	46.5163	-9.63557	129.799
504242	-37.029	80.5758	-34.646	98.4133	-68.4102	46.9533	-41.1408	120.445	-22.3804	121.784	-36.4486	91.6	-37.159	46.7948	-9.48338	129.625
504243	-36.8785	80.7924	-34.4345	98.521	-68.2687	47.4423	-40.9253	120.341	-22.1725	121.679	-36.2566	91.7557	-37.1004	47.0729	-9.33081	129.452
504244	-36.7279	81.0084	-34.223	98.6286	-68.126	47.9259	-40.7096	120.238	-21.9643	121.575	-36.0645	91.911	-37.0417	47.3508	-9.17785	129.279
504245	-36.5772	81.2239	-34.0117	98.7361	-67.9823	48.4041	-40.4936	120.136	-21.7559	121.472	-35.8725	92.0661	-36.9826	47.6283	-9.02452	129.106
504246	-36.4264	81.4389	-33.8003	98.8435	-67.8375	48.8772	-40.2774	120.036	-21.5473	121.369	-35.6806	92.2207	-36.9233	47.9056	-8.87082	128.933
504247	-36.2755	81.6534	-33.5891	98.9509	-67.6917	49.345	-40.061	119.936	-21.3384	121.267	-35.4886	92.3751	-36.8637	48.1825	-8.71673	128.762
504248	-36.1245	81.8674	-33.3779	99.0581	-67.5448	49.8077	-39.8444	119.838	-21.1294	121.166	-35.2967	92.5291	-36.8039	48.4592	-8.56228	128.59
504249	-35.9735	82.0809	-33.1668	99.1652	-67.397	50.2653	-39.6275	119.741	-20.9201	121.066	-35.1048	92.6828	-36.7438	48.7355	-8.40746	128.419
504250	-35.8224	82.2939	-32.9557	99.2723	-67.2481	50.7179	-39.4105	119.645	-20.7106	120.966	-34.9129	92.8362	-36.6835	49.0115	-8.25228	128.248
504251	-35.6712	82.5063	-32.7447	99.3793	-67.0983	51.1656	-39.1932	119.55	-20.5008	120.867	-34.721	92.9893	-36.6229	49.2873	-8.09672	128.078
504252	-35.5199	82.7184	-32.5337	99.4862	-66.9476	51.6085	-38.9758	119.456	-20.2909	120.768	-34.5292	93.142	-36.562	49.5627	-7.94081	127.908
504253	-35.3686	82.9299	-32.3229	99.5931	-66.7959	52.0465	-38.7581	119.363	-20.0807	120.671	-34.3374	93.2945	-36.5009	49.8378	-7.78454	127.739
504254	-35.2172	83.141	-32.112	99.6999	-66.6434	52.4799	-38.5403	119.271	-19.8703	120.573	-34.1456	93.4467	-36.4396	50.1127	-7.62791	127.57
504255	-35.0657	83.3516	-31.9013	99.8066	-66.4899	52.9085	-38.3222	119.18	-19.6598	120.477	-33.9539	93.5985	-36.378	50.3872	-7.47092	127.401
504256	-34.9142	83.5617	-31.6906	99.9133	-66.3356	53.3326	-38.104	119.09	-19.449	120.381	-33.7621	93.7501	-36.3162	50.6614	-7.31358	127.233
504257	-34.7626	83.7714	-31.48	100.02	-66.1804	53.7522	-37.8855	119.002	-19.238	120.285	-33.5705	93.9015	-36.2541	50.9353	-7.15589	127.065
504258	-34.6109	83.9807	-31.2695	100.126	-66.0245	54.1672	-37.6669	118.914	-19.0268	120.191	-33.3788	94.0525	-36.1918	51.2089	-6.99785	126.897
504259	-34.4592	84.1894	-31.059	100.233	-65.8677	54.5779	-37.4481	118.827	-18.8153	120.097	-33.1872	94.2033	-36.1292	51.4822	-6.83946	126.73
504260	-34.3074	84.3978	-30.8486	100.339	-65.7101	54.9842	-37.2291	118.741	-18.6038	120.004	-32.9956	94.3538	-36.0664	51.7552	-6.68073	126.563
504261	-34.1556	84.6057	-30.6383	100.446	-65.5517	55.3863	-37.01	118.656	-18.3919	119.911	-32.8041	94.5041	-36.0034	52.0279	-6.52166	126.397
504262	-34.0037	84.8132	-30.428	100.552	-65.3925	55.7842	-36.7906	118.573	-18.1799	119.819	-32.6126	94.6541	-35.9401	52.3003	-6.36224	126.231
504263	-33.8518	85.0203	-30.2179	100.659	-65.2326	56.1779	-36.5711	118.49	-17.9677	119.727	-32.4211	94.8038	-35.8766	52.5725	-6.20249	126.066
504264	-33.6998	85.227	-30.0078	100.765	-65.072	56.5675	-36.3514	118.408	-17.7553	119.636	-32.2297	94.9534	-35.8129	52.8443	-6.0424	125.9
504265	-33.5478	85.4332	-29.7977	100.871	-64.9107	56.9531	-36.1316	118.327	-17.5428	119.546	-32.0383	95.1026	-35.749	53.1157	-5.88198	125.736
504266	-33.3957	85.639	-29.5878	100.978	-64.7486	57.3347	-35.9116	118.247	-17.33	119.456	-31.847	95.2517	-35.6848	53.3869	-5.72122	125.571
504267	-33.2436	85.8444	-29.3779	101.084	-64.5859	57.7124	-35.6914	118.168	-17.117	119.367	-31.6557	95.4005	-35.6204	53.6579	-5.56014	125.407
504268	-33.0914	86.0495	-29.1681	101.19	-64.4224	58.0863	-35.471	118.089	-16.9039	119.278	-31.4645	95.5491	-35.5557	53.9285	-5.39873	125.243
504269	-32.9392	86.2541	-28.9583	101.296	-64.2584	58.4564	-35.2505	118.012	-16.6906	119.19	-31.2733	95.6975	-35.4909	54.1988	-5.23699	125.08
504270	-32.787	86.4583	-28.7487	101.402	-64.0936	58.8228	-35.0299	117.935	-16.4771	119.103	-31.0822	95.8457	-35.4258	54.4688	-5.07493	124.917
504271	-32.6347	86.6622	-28.5391	101.508	-63.9283	59.1855	-34.8091	117.86	-16.2634	119.016	-30.8911	95.9936	-35.3605	54.7385	-4.91255	124.754
504272	-32.4825	86.8657	-28.3296	101.615	-63.7623	59.5446	-34.5881	117.785	-16.0495	118.93	-30.7	96.1414	-35.295	55.0079	-4.74984	124.592
504273	-32.3301	87.0688	-28.1202	101.721	-63.5957	59.9001	-34.367	117.711	-15.8354	118.844	-30.5091	96.2889	-35.2292	55.277	-4.58682	124.43
504274	-32.1778	87.2715	-27.9109	101.827	-63.4285	60.2521	-34.1457	117.638	-15.6212	118.759	-30.3181	96.4363	-35.1633	55.5458	-4.42349	124.269
504275	-32.0254	87.4738	-27.7016	101.933	-63.2607	60.6007	-33.9243	117.566	-15.4068	118.674	-30.1273	96.5835	-35.0971	55.8143	-4.25984	124.108
504276	-31.873	87.6758	-27.4925	102.039	-63.0923	60.9459	-33.7027	117.495	-15.1923	118.59	-29.9365	96.7305	-35.0307	56.0826	-4.09588	123.947
504277	-31.7206	87.8775	-27.2834	102.145	-62.9234	61.2877	-33.481	117.424	-14.9775	118.507	-29.7457	96.8773	-34.9642	56.3505	-3.9316	123.787
504278	-31.5682	88.0788	-27.0744	102.252	-62.754	61.6263	-33.2592	117.354	-14.7626	118.424	-29.555	97.0239	-34.8974	56.6181	-3.76703	123.626
504279	-31.4157	88.2797	-26.8654	102.358	-62.584	61.9616	-33.0372	117.285	-14.5475	118.342	-29.3644	97.1703	-34.8304	56.8854	-3.60214	123.467
504280	-31.2632	88.4803	-26.6566	102.464	-62.4134	62.2938	-32.8151	117.217	-14.3323	118.26	-29.1738	97.3166	-34.7632	57.1525	-3.43695	123.307
504281	-31.1107	88.6806	-26.4479	102.57	-62.2424	62.6228	-32.5928	117.15	-14.1169	118.179	-28.9833	97.4627	-34.6958	57.4192	-3.27146	123.148
504282	-30.9582	88.8805	-26.2392	102.676	-62.0708	62.9487	-32.3704	117.084	-13.9013	118.098	-28.7928	97.6087	-34.6282	57.6857	-3.10567	122.989
504283	-30.8057	89.0801	-26.0306	102.783	-61.8987	63.2716	-32.1479	117.018	-13.6856	118.018	-28.6024	97.7545	-34.5604	57.9519	-2.93959	122.831
504284	-30.6532	89.2794	-25.8221	102.889	-61.7262	63.5915	-31.9252	116.953	-13.4697	117.938	-28.4121	97.9001	-34.4924	58.2178	-2.7732	122.673
504285	-30.5007	89.4784	-25.6137	102.995	-61.5532	63.9085	-31.7025	116.889	-13.2536	117.859	-28.2218	98.0456	-34.4242	58.4833	-2.60652	122.515
504286	-30.3482	89.677	-25.4054	103.102	-61.3797	64.2226	-31.4796	116.825	-13.0374	117.781	-28.0317	98.191	-34.3558	58.7486	-2.43955	122.358
504287	-30.1956	89.8753	-25.1972	103.208	-61.2058	64.5338	-31.2565	116.763	-12.821	117.702	-27.8415	98.3362	-34.2872	59.0136	-2.27229	122.201
504288	-30.0431	90.0733	-24.9891	103.314	-61.0314	64.8423	-31.0334	116.701	-12.6045	117.625	-27.6515	98.4813	-34.2184	59.2783	-2.10474	122.044
504289	-29.8906	90.2711	-24.781	103.421	-60.8565	65.1479	-30.8101	116.639	-12.3879	117.548	-27.4615	98.6262	-34.1495	59.5428	-1.9369	121.888
504290	-29.7381	90.4685	-24.5731	103.527	-60.6813	65.4509	-30.5867	116.579	-12.171	117.471	-27.2716	98.771	-34.0803	59.8069	-1.76878	121.732
504291	-29.5855	90.6656	-24.3652	103.634	-60.5056	65.7512	-30.3632	116.519	-11.9541	117.395	-27.0818	98.9157	-34.011	60.0708	-1.60038	121.576
504292	-29.433	90.8624	-24.1575	103.74	-60.3295	66.0489	-30.1396	116.46	-11.7369	117.32	-26.892	99.0603	-33.9415	60.3343	-1.43169	121.42
504293	-29.2805	91.0589	-23.9498	103.847	-60.153	66.3439	-29.9159	116.402	-11.5197	117.245	-26.7024	99.2048	-33.8718	60.5976	-1.26272	121.265
504294	-29.128	91.2552	-23.7422	103.954	-59.9761	66.6365	-29.692	116.344	-11.3023	117.17	-26.5128	99.3491	-33.8019	60.8606	-1.09348	121.11
504295	-28.9755	91.4512	-23.5347	104.06	-59.7988	66.9265	-29.4681	116.288	-11.0847	117.096	-26.3233	99.4933	-33.7319	61.1233	-0.923961	120.956
504296	-28.823	91.6469	-23.3274	104.167	-59.6211	67.2141	-29.244	116.231	-10.867	117.023	-26.1338	99.6375	-33.6616	61.3858	-0.754167	120.802
504297	-28.6706	91.8423	-23.1201	104.274	-59.4431	67.4992	-29.0198	116.176	-10.6492	116.95	-25.9444	99.7815	-33.5912	61.6479	-0.584102	120.648
504298	-28.5181	92.0375	-22.9129	104.381	-59.2647	67.782	-28.7955	116.121	-10.4312	116.877	-25.7552	99.9254	-33.5206	61.9098	-0.413765	120.494
504299	-28.3657	92.2324	-22.7058	104.488	-59.0859	68.0624	-28.5712	116.067	-10.213	116.805	-25.566	100.069	-33.4498	62.1713	-0.24316	120.341
504300	-28.2133	92.427	-22.4989	104.595	-58.9068	68.3405	-28.3467	116.013	-9.99477	116.734	-25.3769	100.213	-33.3789	62.4327	-0.072288	120.188
504301	-28.0609	92.6214	-22.292	104.702	-58.7273	68.6164	-28.1221	115.961	-9.77637	116.662	-25.1879	100.357	-33.3078	62.6937	0.0988496	120.035
504302	-27.9085	92.8155	-22.0852	104.809	-58.5475	68.89	-27.8974	115.909	-9.55783	116.592	-24.9989	100.5	-33.2366	62.9544	0.270251	119.883
504303	-27.7562	93.0094	-21.8785	104.916	-58.3674	69.1614	-27.6726	115.857	-9.33916	116.522	-24.8101	100.644	-33.1651	63.2149	0.441914	119.731
504304	-27.6039	93.203	-21.6719	105.024	-58.1869	69.4306	-27.4477	115.806	-9.12036	116.452	-24.6213	100.787	-33.0935	63.4751	0.613837	119.579
504305	-27.4516	93.3964	-21.4655	105.131	-58.0061	69.6977	-27.2227	115.756	-8.90142	116.383	-24.4326	100.93	-33.0218	63.735	0.786019	119.427
504306	-27.2994	93.5896	-21.2591	105.238	-57.825	69.9627	-26.9977	115.707	-8.68235	116.314	-24.2441	101.074	-32.9499	63.9946	0.958457	119.276
504307	-27.1471	93.7825	-21.0528	105.346	-57.6437	70.2257	-26.7725	115.658	-8.46316	116.246	-24.0556	101.217	-32.8778	64.254	1.13115	119.125
504308	-26.995	93.9752	-20.8467	105.454	-57.462	70.4865	-26.5472	115.609	-8.24383	116.178	-23.8672	101.36	-32.8055	64.5131	1.3041	118.975
504309	-26.8428	94.1677	-20.6406	105.561	-57.28	70.7455	-26.3219	115.562	-8.02438	116.111	-23.6789	101.503	-32.7332	64.7719	1.4773	118.824
504310	-26.6907	94.36	-20.4347	105.669	-57.0977	71.0024	-26.0964	115.515	-7.8048	116.044	-23.4907	101.646	-32.6606	65.0305	1.65074	118.674
504311	-26.5386	94.552	-20.2289	105.777	-56.9152	71.2574	-25.8709	115.468	-7.5851	115.978	-23.3026	101.789	-32.5879	65.2887	1.82444	118.524
504312	-26.3866	94.7438	-20.0231	105.885	-56.7324	71.5105	-25.6453	115.422	-7.36527	115.912	-23.1146	101.932	-32.5151	65.5468	1.99839	118.375
504313	-26.2346	94.9354	-19.8175	105.993	-56.5493	71.7617	-25.4196	115.377	-7.14533	115.846	-22.9266	102.075	-32.4421	65.8045	2.17258	118.225
504314	-26.0827	95.1269	-19.612	106.101	-56.3659	72.0111	-25.1938	115.333	-6.92526	115.781	-22.7388	102.218	-32.3689	66.062	2.34701	118.076
504315	-25.9308	95.318	-19.4066	106.21	-56.1823	72.2586	-24.9679	115.289	-6.70507	115.716	-22.5511	102.361	-32.2956	66.3192	2.52168	117.927
504316	-25.7789	95.5091	-19.2014	106.318	-55.9984	72.5044	-24.742	115.245	-6.48476	115.652	-22.3635	102.503	-32.2222	66.5761	2.6966	117.779
504317	-25.6271	95.6998	-18.9962	106.427	-55.8143	72.7484	-24.516	115.203	-6.26433	115.588	-22.176	102.646	-32.1486	66.8328	2.87175	117.631
504318	-25.4753	95.8905	-18.7912	106.535	-55.63	72.9907	-24.2899	115.16	-6.04378	115.525	-21.9886	102.789	-32.0749	67.0892	3.04714	117.483
504319	-25.3237	96.0809	-18.5862	106.644	-55.4454	73.2312	-24.0637	115.119	-5.82312	115.462	-21.8013	102.931	-32.001	67.3454	3.22277	117.335
504320	-25.172	96.2711	-18.3814	106.753	-55.2605	73.4701	-23.8374	115.078	-5.60235	115.4	-21.6141	103.074	-31.927	67.6012	3.39863	117.188
504321	-25.0204	96.4612	-18.1767	106.862	-55.0755	73.7073	-23.6111	115.037	-5.38146	115.338	-21.4271	103.217	-31.8529	67.8569	3.57472	117.04
504322	-24.8689	96.651	-17.9721	106.971	-54.8902	73.9429	-23.3847	114.997	-5.16045	115.276	-21.2401	103.359	-31.7786	68.1123	3.75105	116.893
504323	-24.7174	96.8407	-17.7677	107.08	-54.7047	74.1769	-23.1582	114.958	-4.93934	115.215	-21.0532	103.502	-31.7042	68.3674	3.9276	116.747
504324	-24.566	97.0303	-17.5633	107.189	-54.519	74.4093	-22.9316	114.919	-4.71812	115.154	-20.8665	103.645	-31.6297	68.6222	4.10438	116.6
504325	-24.4146	97.2196	-17.3591	107.299	-54.3331	74.6402	-22.705	114.881	-4.49678	115.094	-20.6799	103.787	-31.555	68.8768	4.28139	116.454
504326	-24.2633	97.4088	-17.155	107.408	-54.1469	74.8695	-22.4783	114.843	-4.27534	115.034	-20.4933	103.93	-31.4802	69.1311	4.45862	116.308
504327	-24.1121	97.5978	-16.951	107.518	-53.9606	75.0974	-22.2515	114.806	-4.05379	114.975	-20.3069	104.072	-31.4053	69.3852	4.63607	116.162
504328	-23.9609	97.7867	-16.7472	107.628	-53.7741	75.3237	-22.0247	114.769	-3.83213	114.915	-20.1207	104.215	-31.3303	69.639	4.81375	116.017
504329	-23.8099	97.9754	-16.5435	107.738	-53.5874	75.5486	-21.7978	114.733	-3.61036	114.857	-19.9345	104.357	-31.2551	69.8926	4.99165	115.871
504330	-23.6588	98.164	-16.3398	107.848	-53.4005	75.772	-21.5708	114.698	-3.3885	114.799	-19.7484	104.5	-31.1798	70.146	5.16976	115.726
504331	-23.5079	98.3524	-16.1364	107.958	-53.2134	75.9941	-21.3438	114.662	-3.16652	114.741	-19.5625	104.643	-31.1044	70.399	5.3481	115.581
504332	-23.357	98.5407	-15.933	108.068	-53.0261	76.2147	-21.1167	114.628	-2.94445	114.683	-19.3767	104.785	-31.0289	70.6519	5.52664	115.437
504333	-23.2062	98.7288	-15.7298	108.179	-52.8387	76.434	-20.8896	114.594	-2.72227	114.626	-19.191	104.928	-30.9533	70.9044	5.70541	115.292
504334	-23.0555	98.9168	-15.5267	108.289	-52.651	76.6519	-20.6624	114.561	-2.5	114.57	-19.0054	105.07	-30.8775	71.1568	5.88438	115.148
504335	-22.9048	99.1046	-15.3237	108.4	-52.4632	76.8685	-20.4351	114.528	-2.27762	114.514	-18.82	105.213	-30.8016	71.4089	6.06357	115.004
504336	-22.7542	99.2923	-15.1209	108.511	-52.2753	77.0838	-20.2078	114.495	-2.05514	114.458	-18.6347	105.356	-30.7256	71.6607	6.24297	114.861
504337	-22.6038	99.4799	-14.9182	108.622	-52.0872	77.2978	-19.9804	114.463	-1.83256	114.403	-18.4495	105.499	-30.6495	71.9123	6.42257	114.717
504338	-22.4534	99.6674	-14.7156	108.734	-51.8989	77.5105	-19.7529	114.432	-1.60989	114.347	-18.2644	105.641	-30.5733	72.1636	6.60238	114.574
504339	-22.303	99.8547	-14.5132	108.845	-51.7105	77.722	-19.5254	114.401	-1.38712	114.293	-18.0795	105.784	-30.497	72.4147	6.7824	114.431
504340	-22.1528	100.042	-14.3109	108.957	-51.5219	77.9322	-19.2978	114.371	-1.16426	114.239	-17.8947	105.927	-30.4206	72.6656	6.96262	114.288
504341	-22.0026	100.229	-14.1087	109.068	-51.3332	78.1413	-19.0702	114.341	-0.941302	114.185	-17.71	106.07	-30.3441	72.9163	7.14305	114.145
504342	-21.8526	100.416	-13.9067	109.18	-51.1443	78.3491	-18.8426	114.312	-0.71825	114.132	-17.5255	106.213	-30.2675	73.1667	7.32367	114.003
504343	-21.7026	100.603	-13.7048	109.292	-50.9553	78.5558	-18.6148	114.283	-0.495105	114.079	-17.3411	106.356	-30.1907	73.4168	7.5045	113.86
504344	-21.5527	100.79	-13.503	109.404	-50.7661	78.7613	-18.3871	114.254	-0.271869	114.026	-17.1568	106.499	-30.1139	73.6667	7.68553	113.718
504345	-21.4029	100.976	-13.3014	109.517	-50.5768	78.9657	-18.1593	114.227	-0.0485408	113.974	-16.9727	106.642	-30.037	73.9164	7.86675	113.576
504346	-21.2532	101.163	-13.1	109.629	-50.3874	79.1689	-17.9314	114.199	0.174877	113.922	-16.7887	106.785	-29.9599	74.1659	8.04816	113.435
504347	-21.1036	101.349	-12.8986	109.742	-50.1979	79.3711	-17.7035	114.172	0.398384	113.87	-16.6048	106.928	-29.8828	74.4151	8.22978	113.293
504348	-20.9541	101.535	-12.6974	109.855	-50.0082	79.5721	-17.4755	114.146	0.62198	113.819	-16.4211	107.071	-29.8056	74.6641	8.41158	113.152
504349	-20.8047	101.722	-12.4964	109.968	-49.8184	79.7721	-17.2475	114.12	0.845664	113.769	-16.2375	107.214	-29.7283	74.9128	8.59358	113.011
504350	-20.6554	101.908	-12.2955	110.081	-49.6285	79.971	-17.0194	114.094	1.06943	113.718	-16.0541	107.358	-29.6509	75.1613	8.77576	112.87
504351	-20.5062	102.094	-12.0947	110.195	-49.4385	80.1689	-16.7913	114.069	1.29329	113.668	-15.8708	107.501	-29.5734	75.4096	8.95814	112.729
504352	-20.3571	102.28	-11.8941	110.308	-49.2483	80.3658	-16.5632	114.045	1.51723	113.619	-15.6877	107.644	-29.4959	75.6577	9.1407	112.588
504353	-20.2081	102.466	-11.6936	110.422	-49.0581	80.5617	-16.335	114.021	1.74126	113.57	-15.5047	107.788	-29.4182	75.9056	9.32345	112.448
504354	-20.0593	102.652	-11.4933	110.536	-48.8677	80.7565	-16.1067	113.997	1.96537	113.521	-15.3218	107.932	-29.3405	76.1532	9.50639	112.308
504355	-19.9105	102.837	-11.2932	110.65	-48.6773	80.9504	-15.8785	113.974	2.18956	113.473	-15.1391	108.075	-29.2626	76.4006	9.68951	112.168
504356	-19.7618	103.023	-11.0931	110.765	-48.4867	81.1433	-15.6502	113.951	2.41383	113.424	-14.9566	108.219	-29.1847	76.6478	9.87281	112.028
504357	-19.6133	103.209	-10.8933	110.879	-48.296	81.3353	-15.4218	113.929	2.63819	113.377	-14.7742	108.363	-29.1067	76.8947	10.0563	111.888
504358	-19.4648	103.394	-10.6936	110.994	-48.1053	81.5263	-15.1934	113.907	2.86262	113.33	-14.5919	108.507	-29.0287	77.1415	10.24	111.749
504359	-19.3165	103.58	-10.494	111.109	-47.9144	81.7165	-14.965	113.886	3.08714	113.283	-14.4098	108.651	-28.9505	77.388	10.4238	111.609
504360	-19.1683	103.765	-10.2946	111.225	-47.7235	81.9057	-14.7365	113.865	3.31173	113.236	-14.2279	108.795	-28.8723	77.6343	10.6078	111.47
504361	-19.0202	103.95	-10.0954	111.34	-47.5324	82.094	-14.508	113.845	3.5364	113.19	-14.0461	108.939	-28.794	77.8804	10.792	111.331
504362	-18.8722	104.136	-9.89626	111.456	-47.3413	82.2815	-14.2795	113.825	3.76115	113.144	-13.8644	109.084	-28.7157	78.1263	10.9764	111.192
504363	-18.7244	104.321	-9.69733	111.571	-47.1501	82.468	-14.0509	113.806	3.98598	113.099	-13.683	109.228	-28.6372	78.3719	11.1609	111.053
504364	-18.5766	104.506	-9.49856	111.687	-46.9588	82.6538	-13.8223	113.787	4.21088	113.054	-13.5017	109.372	-28.5587	78.6174	11.3456	110.915
504365	-18.429	104.691	-9.29994	111.804	-46.7674	82.8386	-13.5936	113.768	4.43585	113.009	-13.3205	109.517	-28.4802	78.8626	11.5305	110.776
504366	-18.2815	104.876	-9.10149	111.92	-46.576	83.0227	-13.365	113.75	4.6609	112.965	-13.1395	109.662	-28.4015	79.1076	11.7156	110.638
504367	-18.1342	105.061	-8.9032	112.037	-46.3844	83.2059	-13.1363	113.732	4.88603	112.921	-12.9587	109.807	-28.3228	79.3524	11.9008	110.5
504368	-17.987	105.246	-8.70507	112.154	-46.1928	83.3884	-12.9075	113.715	5.11122	112.877	-12.778	109.951	-28.2441	79.597	12.0862	110.362
504369	-17.8399	105.431	-8.50711	112.271	-46.0012	83.57	-12.6788	113.698	5.33649	112.834	-12.5975	110.097	-28.1653	79.8414	12.2717	110.224
504370	-17.6929	105.616	-8.30931	112.388	-45.8094	83.7509	-12.45	113.682	5.56183	112.791	-12.4172	110.242	-28.0864	80.0857	12.4574	110.086
504371	-17.5461	105.801	-8.11168	112.506	-45.6176	83.931	-12.2211	113.666	5.78724	112.748	-12.237	110.387	-28.0074	80.3296	12.6433	109.948
504372	-17.3993	105.986	-7.91422	112.624	-45.4258	84.1104	-11.9923	113.65	6.01272	112.706	-12.0571	110.532	-27.9284	80.5734	12.8294	109.811
504373	-17.2528	106.17	-7.71693	112.742	-45.2338	84.289	-11.7634	113.635	6.23827	112.664	-11.8772	110.678	-27.8494	80.817	13.0156	109.673
504374	-17.1064	106.355	-7.51981	112.86	-45.0418	84.4669	-11.5345	113.621	6.46389	112.623	-11.6976	110.824	-27.7703	81.0604	13.2019	109.536
504375	-16.9601	106.54	-7.32286	112.978	-44.8498	84.644	-11.3056	113.606	6.68958	112.582	-11.5181	110.969	-27.6911	81.3036	13.3885	109.399
504376	-16.8139	106.725	-7.12608	113.097	-44.6577	84.8205	-11.0766	113.593	6.91533	112.541	-11.3388	111.115	-27.6119	81.5466	13.5751	109.262
504377	-16.6679	106.909	-6.92948	113.216	-44.4655	84.9962	-10.8476	113.579	7.14115	112.501	-11.1597	111.261	-27.5326	81.7894	13.762	109.125
504378	-16.522	107.094	-6.73305	113.335	-44.2733	85.1713	-10.6186	113.566	7.36703	112.46	-10.9808	111.407	-27.4533	82.032	13.949	108.988
504379	-16.3763	107.279	-6.5368	113.455	-44.0811	85.3457	-10.3896	113.554	7.59298	112.421	-10.802	111.554	-27.3739	82.2744	14.1361	108.852
504380	-16.2307	107.463	-6.34073	113.575	-43.8888	85.5194	-10.1606	113.542	7.819	112.381	-10.6234	111.7	-27.2945	82.5166	14.3234	108.715
504381	-16.0853	107.648	-6.14483	113.695	-43.6964	85.6924	-9.93151	113.53	8.04507	112.342	-10.445	111.847	-27.2151	82.7586	14.5108	108.579
504382	-15.94	107.833	-5.94912	113.815	-43.504	85.8649	-9.70243	113.519	8.27121	112.304	-10.2668	111.994	-27.1356	83.0005	14.6984	108.442
504383	-15.7949	108.017	-5.75359	113.935	-43.3116	86.0366	-9.47332	113.508	8.49742	112.266	-10.0887	112.141	-27.056	83.2421	14.8862	108.306
504384	-15.6499	108.202	-5.55824	114.056	-43.1191	86.2078	-9.2442	113.497	8.72368	112.228	-9.91089	112.287	-26.9765	83.4836	15.0741	108.17
504385	-15.5051	108.386	-5.36307	114.177	-42.9266	86.3783	-9.01506	113.487	8.95001	112.19	-9.73323	112.435	-26.8969	83.7248	15.2621	108.034
504386	-15.3604	108.571	-5.16809	114.299	-42.734	86.5482	-8.7859	113.478	9.17639	112.153	-9.55575	112.582	-26.8172	83.9659	15.4503	107.898
504387	-15.2159	108.756	-4.9733	114.42	-42.5415	86.7176	-8.55673	113.469	9.40284	112.116	-9.37847	112.73	-26.7375	84.2068	15.6386	107.762
504388	-15.0716	108.94	-4.77869	114.542	-42.3488	86.8863	-8.32754	113.46	9.62934	112.079	-9.20138	112.877	-26.6578	84.4475	15.8271	107.626
504389	-14.9274	109.125	-4.58427	114.664	-42.1562	87.0544	-8.09834	113.451	9.8559	112.043	-9.02447	113.025	-26.5781	84.6881	16.0157	107.491
504390	-14.7834	109.31	-4.39004	114.786	-41.9635	87.222	-7.86912	113.444	10.0825	112.007	-8.84777	113.173	-26.4983	84.9284	16.2045	107.355
504391	-14.6395	109.494	-4.19601	114.909	-41.7708	87.389	-7.63989	113.436	10.3092	111.972	-8.67126	113.321	-26.4185	85.1686	16.3934	107.219
504392	-14.4958	109.679	-4.00217	115.032	-41.5781	87.5555	-7.41065	113.429	10.5359	111.937	-8.49494	113.47	-26.3386	85.4086	16.5824	107.084
504393	-14.3522	109.864	-3.80852	115.155	-41.3853	87.7214	-7.18139	113.422	10.7627	111.902	-8.31882	113.618	-26.2587	85.6484	16.7716	106.949
504394	-14.2089	110.049	-3.61507	115.278	-41.1925	87.8868	-6.95213	113.416	10.9896	111.868	-8.14291	113.767	-26.1789	85.8881	16.9609	106.813
504395	-14.0657	110.233	-3.42181	115.402	-40.9998	88.0516	-6.72285	113.41	11.2165	111.833	-7.96719	113.916	-26.0989	86.1275	17.1503	106.678
504396	-13.9226	110.418	-3.22875	115.526	-40.8069	88.216	-6.49356	113.404	11.4434	111.8	-7.79168	114.065	-26.019	86.3668	17.3399	106.543
504397	-13.7798	110.603	-3.0359	115.65	-40.6141	88.3798	-6.26426	113.399	11.6704	111.766	-7.61637	114.214	-25.939	86.6059	17.5296	106.408
504398	-13.6371	110.788	-2.84324	115.775	-40.4213	88.5431	-6.03496	113.395	11.8975	111.733	-7.44126	114.363	-25.8591	86.8449	17.7195	106.273
504399	-13.4946	110.972	-2.65078	115.9	-40.2284	88.7059	-5.80565	113.39	12.1246	111.701	-7.26637	114.513	-25.7791	87.0837	17.9094	106.138
504400	-13.3522	111.157	-2.45853	116.025	-40.0355	88.8682	-5.57633	113.386	12.3517	111.668	-7.09168	114.663	-25.699	87.3223	18.0995	106.003
504401	-13.2101	111.342	-2.26649	116.151	-39.8426	89.0301	-5.347	113.383	12.579	111.636	-6.9172	114.813	-25.619	87.5607	18.2898	105.868
504402	-13.0681	111.527	-2.07465	116.276	-39.6497	89.1915	-5.11767	113.38	12.8062	111.605	-6.74293	114.963	-25.539	87.799	18.4801	105.733
504403	-12.9263	111.712	-1.88302	116.403	-39.4568	89.3524	-4.88833	113.377	13.0335	111.573	-6.56887	115.113	-25.4589	88.0372	18.6706	105.599
504404	-12.7847	111.897	-1.6916	116.529	-39.2639	89.5128	-4.65899	113.375	13.2609	111.542	-6.39503	115.264	-25.3788	88.2751	18.8612	105.464
504405	-12.6432	112.082	-1.50039	116.656	-39.071	89.6728	-4.42965	113.373	13.4883	111.512	-6.22141	115.415	-25.2988	88.5129	19.052	105.329
504406	-12.502	112.267	-1.3094	116.783	-38.8781	89.8324	-4.2003	113.371	13.7158	111.481	-6.048	115.566	-25.2187	88.7506	19.2428	105.195
504407	-12.3609	112.453	-1.11861	116.91	-38.6852	89.9915	-3.97095	113.37	13.9433	111.451	-5.87481	115.717	-25.1386	88.988	19.4338	105.06
504408	-12.22	112.638	-0.928044	117.038	-38.4923	90.1502	-3.7416	113.37	14.1708	111.422	-5.70184	115.868	-25.0585	89.2253	19.6249	104.925
504409	-12.0793	112.823	-0.737693	117.166	-38.2993	90.3085	-3.51225	113.369	14.3984	111.393	-5.52909	116.02	-24.9784	89.4625	19.8161	104.791
504410	-11.9389	113.009	-0.54756	117.294	-38.1064	90.4664	-3.2829	113.37	14.626	111.364	-5.35656	116.171	-24.8983	89.6995	20.0074	104.656
504411	-11.7986	113.194	-0.357647	117.422	-37.9135	90.6238	-3.05355	113.37	14.8537	111.335	-5.18426	116.323	-24.8181	89.9364	20.1989	104.522
504412	-11.6585	113.379	-0.167955	117.551	-37.7206	90.7809	-2.8242	113.371	15.0815	111.307	-5.01219	116.476	-24.738	90.1731	20.3905	104.387
504413	-11.5185	113.565	0.0215133	117.681	-37.5277	90.9375	-2.59485	113.372	15.3092	111.279	-4.84034	116.628	-24.6579	90.4096	20.5821	104.253
504414	-11.3788	113.751	0.210758	117.81	-37.3348	91.0938	-2.3655	113.374	15.5371	111.252	-4.66873	116.781	-24.5778	90.646	20.7739	104.118
504415	-11.2393	113.936	0.399776	117.94	-37.142	91.2497	-2.13616	113.376	15.7649	111.225	-4.49734	116.934	-24.4977	90.8822	20.9658	103.984
504416	-11.1	114.122	0.588567	118.07	-36.9491	91.4052	-1.90682	113.379	15.9928	111.198	-4.32619	117.087	-24.4176	91.1183	21.1579	103.85
504417	-10.9609	114.308	0.777129	118.201	-36.7563	91.5603	-1.67749	113.381	16.2207	111.171	-4.15527	117.24	-24.3375	91.3543	21.35	103.715
504418	-10.822	114.493	0.96546	118.332	-36.5634	91.7151	-1.44816	113.385	16.4487	111.145	-3.98458	117.394	-24.2574	91.5901	21.5422	103.581
504419	-10.6833	114.679	1.15356	118.463	-36.3706	91.8695	-1.21884	113.388	16.6767	111.12	-3.81414	117.548	-24.1774	91.8257	21.7346	103.447
504420	-10.5448	114.865	1.34143	118.595	-36.1778	92.0236	-0.989521	113.392	16.9048	111.094	-3.64393	117.702	-24.0973	92.0613	21.9271	103.312
504421	-10.4065	115.052	1.52906	118.727	-35.985	92.1773	-0.760213	113.397	17.1329	111.069	-3.47396	117.856	-24.0172	92.2966	22.1196	103.178
504422	-10.2684	115.238	1.71645	118.859	-35.7922	92.3307	-0.530913	113.402	17.361	111.044	-3.30423	118.01	-23.9372	92.5319	22.3123	103.043
504423	-10.1306	115.424	1.9036	118.991	-35.5995	92.4838	-0.301622	113.407	17.5892	111.02	-3.13475	118.165	-23.8572	92.767	22.5051	102.909
504424	-9.99291	115.61	2.09052	119.124	-35.4068	92.6365	-0.07234	113.413	17.8174	110.996	-2.96551	118.32	-23.7772	93.0019	22.698	102.775
504425	-9.85547	115.797	2.27719	119.258	-35.2141	92.7889	0.156931	113.419	18.0457	110.972	-2.79652	118.476	-23.6972	93.2367	22.891	102.64
504426	-9.71824	115.983	2.46362	119.391	-35.0214	92.9411	0.386192	113.425	18.2739	110.949	-2.62778	118.631	-23.6172	93.4714	23.0841	102.506
504427	-9.58124	116.17	2.6498	119.525	-34.8287	93.0928	0.615441	113.432	18.5023	110.926	-2.45929	118.787	-23.5372	93.706	23.2772	102.371
504428	-9.44445	116.356	2.83574	119.66	-34.6361	93.2443	0.844677	113.439	18.7306	110.904	-2.29105	118.943	-23.4573	93.9404	23.4705	102.237
504429	-9.30789	116.543	3.02142	119.795	-34.4435	93.3955	1.0739	113.447	18.959	110.882	-2.12306	119.099	-23.3774	94.1746	23.6639	102.102
504430	-9.17155	116.73	3.20686	119.93	-34.2509	93.5464	1.30311	113.455	19.1874	110.86	-1.95533	119.256	-23.2975	94.4088	23.8574	101.968
504431	-9.03543	116.917	3.39205	120.066	-34.0584	93.6971	1.53231	113.464	19.4159	110.838	-1.78785	119.412	-23.2176	94.6428	24.051	101.833
504432	-8.89953	117.104	3.57698	120.201	-33.8659	93.8474	1.76149	113.472	19.6444	110.817	-1.62064	119.569	-23.1378	94.8767	24.2446	101.698
504433	-8.76387	117.291	3.76165	120.338	-33.6734	93.9974	1.99065	113.482	19.8729	110.796	-1.45368	119.727	-23.058	95.1104	24.4384	101.564
504434	-8.62843	117.478	3.94607	120.474	-33.481	94.1472	2.2198	113.491	20.1014	110.776	-1.28698	119.884	-22.9782	95.3441	24.6323	101.429
504435	-8.49322	117.666	4.13023	120.611	-33.2886	94.2968	2.44893	113.501	20.33	110.756	-1.12055	120.042	-22.8985	95.5776	24.8262	101.294
504436	-8.35825	117.853	4.31413	120.749	-33.0963	94.446	2.67805	113.512	20.5586	110.736	-0.954386	120.2	-22.8188	95.811	25.0203	101.159
504437	-8.2235	118.041	4.49777	120.887	-32.9039	94.595	2.90714	113.523	20.7873	110.717	-0.788487	120.359	-22.7391	96.0442	25.2144	101.025
504438	-8.08899	118.228	4.68114	121.025	-32.7117	94.7438	3.13622	113.534	21.0159	110.698	-0.622856	120.517	-22.6594	96.2773	25.4086	100.89
504439	-7.95472	118.416	4.86425	121.163	-32.5194	94.8923	3.36527	113.546	21.2446	110.68	-0.457495	120.676	-22.5798	96.5104	25.6029	100.755
504440	-7.82069	118.604	5.04708	121.302	-32.3272	95.0406	3.59431	113.558	21.4733	110.661	-0.292407	120.835	-22.5002	96.7433	25.7974	100.62
504441	-7.68689	118.792	5.22965	121.442	-32.1351	95.1886	3.82332	113.57	21.7021	110.644	-0.127593	120.995	-22.4207	96.976	25.9918	100.484
504442	-7.55334	118.98	5.41195	121.582	-31.943	95.3364	4.05231	113.583	21.9309	110.626	0.0369457	121.155	-22.3412	97.2087	26.1864	100.349
504443	-7.42003	119.168	5.59397	121.722	-31.7509	95.484	4.28128	113.596	22.1597	110.609	0.201207	121.315	-22.2617	97.4412	26.3811	100.214
504444	-7.28697	119.357	5.77571	121.862	-31.5589	95.6314	4.51023	113.61	22.3885	110.592	0.365189	121.475	-22.1823	97.6737	26.5758	100.079
504445	-7.15414	119.545	5.95718	122.003	-31.3669	95.7785	4.73914	113.624	22.6173	110.576	0.52889	121.636	-22.103	97.906	26.7706	99.9433
504446	-7.02157	119.734	6.13837	122.145	-31.175	95.9255	4.96804	113.638	22.8462	110.56	0.692308	121.797	-22.0236	98.1382	26.9655	99.8077
504447	-6.88925	119.922	6.31928	122.286	-30.9832	96.0722	5.19691	113.653	23.0751	110.544	0.855442	121.958	-21.9444	98.3703	27.1605	99.6721
504448	-6.75718	120.111	6.49991	122.429	-30.7914	96.2187	5.42575	113.669	23.304	110.529	1.01829	122.119	-21.8651	98.6022	27.3556	99.5364
504449	-6.62536	120.3	6.68025	122.571	-30.5996	96.3651	5.65457	113.684	23.533	110.514	1.18085	122.281	-21.7859	98.8341	27.5507	99.4006
504450	-6.49379	120.489	6.8603	122.714	-30.4079	96.5112	5.88336	113.701	23.7619	110.5	1.34312	122.443	-21.7068	99.0659	27.7459	99.2647
504451	-6.36248	120.678	7.04007	122.858	-30.2163	96.6572	6.11212	113.717	23.9909	110.486	1.50509	122.606	-21.6277	99.2975	27.9412	99.1287
504452	-6.23143	120.868	7.21954	123.002	-30.0247	96.8029	6.34085	113.734	24.22	110.472	1.66678	122.769	-21.5487	99.5291	28.1365	98.9926
504453	-6.10063	121.057	7.39872	123.146	-29.8331	96.9485	6.56955	113.751	24.449	110.459	1.82816	122.931	-21.4697	99.7605	28.332	98.8563
504454	-5.9701	121.247	7.57761	123.291	-29.6417	97.0939	6.79822	113.769	24.678	110.446	1.98925	123.095	-21.3908	99.9919	28.5275	98.72
504455	-5.83982	121.437	7.7562	123.436	-29.4503	97.2392	7.02686	113.787	24.9071	110.433	2.15004	123.258	-21.3119	100.223	28.7231	98.5835
504456	-5.70981	121.627	7.93449	123.582	-29.2589	97.3842	7.25546	113.806	25.1362	110.421	2.31053	123.422	-21.2331	100.454	28.9187	98.4469
504457	-5.58007	121.817	8.11247	123.728	-29.0676	97.5292	7.48403	113.825	25.3653	110.41	2.47072	123.587	-21.1543	100.685	29.1144	98.3102
504458	-5.45059	122.007	8.29016	123.874	-28.8764	97.6739	7.71257	113.845	25.5944	110.398	2.6306	123.751	-21.0756	100.916	29.3102	98.1733
504459	-5.32139	122.197	8.46754	124.021	-28.6852	97.8185	7.94107	113.865	25.8236	110.387	2.79018	123.916	-20.997	101.147	29.5061	98.0363
504460	-5.19245	122.388	8.64461	124.169	-28.4942	97.963	8.16954	113.885	26.0527	110.377	2.94944	124.082	-20.9184	101.378	29.702	97.8992
504461	-5.06378	122.578	8.82137	124.317	-28.3031	98.1073	8.39797	113.906	26.2819	110.367	3.1084	124.247	-20.8399	101.608	29.898	97.7619
504462	-4.93539	122.769	8.99783	124.465	-28.1122	98.2514	8.62637	113.927	26.5111	110.357	3.26704	124.413	-20.7615	101.839	30.094	97.6245
504463	-4.80727	122.96	9.17396	124.614	-27.9213	98.3954	8.85473	113.948	26.7402	110.348	3.42537	124.579	-20.6831	102.069	30.2902	97.4869
504464	-4.67943	123.151	9.34979	124.763	-27.7305	98.5393	9.08304	113.97	26.9695	110.339	3.58338	124.746	-20.6048	102.3	30.4863	97.3492
504465	-4.55187	123.342	9.52529	124.912	-27.5397	98.6831	9.31132	113.993	27.1987	110.33	3.74107	124.913	-20.5266	102.53	30.6826	97.2113
504466	-4.42458	123.534	9.70047	125.063	-27.3491	98.8267	9.53956	114.016	27.4279	110.322	3.89844	125.08	-20.4484	102.76	30.8789	97.0732
504467	-4.29758	123.725	9.87533	125.213	-27.1585	98.9702	9.76776	114.039	27.6572	110.315	4.05549	125.247	-20.3703	102.99	31.0752	96.935
504468	-4.17086	123.917	10.0499	125.364	-26.9679	99.1136	9.99591	114.063	27.8864	110.307	4.21221	125.415	-20.2923	103.22	31.2716	96.7966
504469	-4.04443	124.109	10.2241	125.516	-26.7775	99.2569	10.224	114.087	28.1157	110.3	4.36861	125.584	-20.2143	103.45	31.4681	96.658
504470	-3.91828	124.301	10.398	125.668	-26.5871	99.4001	10.4521	114.111	28.345	110.294	4.52468	125.752	-20.1365	103.68	31.6646	96.5192
504471	-3.79242	124.493	10.5715	125.82	-26.3969	99.5431	10.6801	114.136	28.5743	110.288	4.68042	125.921	-20.0587	103.91	31.8612	96.3803
504472	-3.66685	124.685	10.7447	125.973	-26.2066	99.6861	10.9081	114.162	28.8036	110.282	4.83582	126.09	-19.9809	104.139	32.0578	96.2411
504473	-3.54158	124.878	10.9176	126.127	-26.0165	99.8289	11.136	114.188	29.0329	110.277	4.99089	126.26	-19.9033	104.369	32.2545	96.1018
504474	-3.41659	125.07	11.0901	126.281	-25.8265	99.9717	11.3639	114.214	29.2622	110.273	5.14563	126.43	-19.8257	104.599	32.4513	95.9623
504475	-3.2919	125.263	11.2623	126.435	-25.6365	100.114	11.5918	114.241	29.4915	110.268	5.30002	126.6	-19.7482	104.828	32.648	95.8225
504476	-3.16751	125.456	11.4342	126.59	-25.4466	100.257	11.8196	114.268	29.7208	110.265	5.45408	126.771	-19.6709	105.057	32.8449	95.6826
504477	-3.04342	125.649	11.6057	126.745	-25.2569	100.399	12.0473	114.296	29.9502	110.261	5.60779	126.942	-19.5935	105.287	33.0418	95.5424
504478	-2.91962	125.843	11.7769	126.901	-25.0671	100.542	12.275	114.324	30.1795	110.258	5.76116	127.113	-19.5163	105.516	33.2387	95.402
504479	-2.79613	126.036	11.9477	127.058	-24.8775	100.684	12.5026	114.353	30.4088	110.256	5.91418	127.285	-19.4392	105.745	33.4357	95.2614
504480	-2.67294	126.23	12.1182	127.214	-24.688	100.826	12.7302	114.382	30.6382	110.254	6.06685	127.457	-19.3621	105.974	33.6327	95.1205
504481	-2.55005	126.424	12.2883	127.372	-24.4986	100.969	12.9578	114.411	30.8675	110.252	6.21917	127.629	-19.2851	106.203	33.8297	94.9794
504482	-2.42748	126.618	12.458	127.53	-24.3092	101.111	13.1852	114.441	31.0968	110.251	6.37113	127.802	-19.2082	106.432	34.0268	94.8381
504483	-2.30521	126.812	12.6274	127.688	-24.12	101.253	13.4127	114.472	31.3262	110.25	6.52274	127.975	-19.1314	106.66	34.224	94.6965
504484	-2.18325	127.006	12.7965	127.847	-23.9308	101.395	13.64	114.503	31.5556	110.25	6.67399	128.149	-19.0547	106.889	34.4212	94.5547
504485	-2.0616	127.201	12.9651	128.006	-23.7417	101.537	13.8674	114.534	31.7849	110.25	6.82489	128.323	-18.9781	107.118	34.6184	94.4126
504486	-1.94026	127.396	13.1334	128.166	-23.5528	101.679	14.0946	114.566	32.0142	110.251	6.97542	128.497	-18.9016	107.346	34.8157	94.2703
504487	-1.81924	127.591	13.3013	128.327	-23.3639	101.82	14.3218	114.598	32.2436	110.252	7.12559	128.672	-18.8252	107.575	35.013	94.1277
504488	-1.69854	127.786	13.4689	128.488	-23.1751	101.962	14.549	114.631	32.4729	110.254	7.27538	128.847	-18.7489	107.803	35.2103	93.9848
504489	-1.57816	127.981	13.6361	128.649	-22.9864	102.104	14.776	114.664	32.7023	110.256	7.42482	129.022	-18.6726	108.032	35.4077	93.8417
504490	-1.45809	128.176	13.8029	128.811	-22.7979	102.246	15.0031	114.698	32.9316	110.259	7.57388	129.198	-18.5965	108.26	35.6051	93.6982
504491	-1.33835	128.372	13.9693	128.974	-22.6094	102.387	15.23	114.732	33.1609	110.262	7.72256	129.374	-18.5205	108.488	35.8025	93.5545
504492	-1.21893	128.568	14.1354	129.137	-22.421	102.529	15.4569	114.767	33.3903	110.266	7.87088	129.551	-18.4446	108.716	36	93.4105
504493	-1.09983	128.764	14.301	129.301	-22.2327	102.671	15.6837	114.802	33.6196	110.27	8.01881	129.728	-18.3687	108.945	36.1975	93.2662
504494	-0.981068	128.96	14.4663	129.465	-22.0446	102.812	15.9105	114.838	33.8489	110.274	8.16637	129.905	-18.293	109.173	36.395	93.1216
504495	-0.862629	129.157	14.6312	129.629	-21.8565	102.954	16.1372	114.874	34.0782	110.279	8.31354	130.083	-18.2174	109.401	36.5925	92.9767
504496	-0.744521	129.353	14.7957	129.795	-21.6685	103.095	16.3639	114.91	34.3075	110.285	8.46033	130.261	-18.1419	109.629	36.7901	92.8314
504497	-0.626745	129.55	14.9597	129.96	-21.4807	103.237	16.5904	114.948	34.5368	110.291	8.60673	130.44	-18.0665	109.856	36.9877	92.6858
504498	-0.509304	129.747	15.1234	130.127	-21.293	103.378	16.8169	114.985	34.7661	110.298	8.75275	130.618	-17.9912	110.084	37.1853	92.54
504499	-0.392197	129.944	15.2867	130.294	-21.1053	103.52	17.0434	115.023	34.9954	110.305	8.89837	130.798	-17.916	110.312	37.383	92.3937
504500	-0.275428	130.142	15.4496	130.461	-20.9178	103.661	17.2697	115.062	35.2246	110.313	9.0436	130.977	-17.8409	110.54	37.5806	92.2472
504501	-0.158998	130.339	15.6121	130.629	-20.7304	103.803	17.496	115.101	35.4539	110.321	9.18843	131.158	-17.766	110.767	37.7783	92.1002
504502	-0.0429082	130.537	15.7742	130.798	-20.5431	103.944	17.7222	115.141	35.6831	110.33	9.33287	131.338	-17.6911	110.995	37.9761	91.953
504503	0.0728388	130.735	15.9359	130.967	-20.3559	104.086	17.9484	115.181	35.9123	110.339	9.4769	131.519	-17.6164	111.223	38.1738	91.8053
504504	0.188242	130.933	16.0971	131.137	-20.1689	104.227	18.1744	115.222	36.1416	110.349	9.62054	131.7	-17.5418	111.45	38.3715	91.6573
504505	0.303299	131.132	16.2579	131.307	-19.982	104.368	18.4004	115.263	36.3707	110.359	9.76377	131.882	-17.4673	111.678	38.5693	91.509
504506	0.418008	131.33	16.4183	131.477	-19.7951	104.51	18.6263	115.305	36.5999	110.37	9.90659	132.064	-17.3929	111.905	38.767	91.3602
504507	0.532368	131.529	16.5783	131.649	-19.6084	104.651	18.8521	115.347	36.8291	110.382	10.049	132.247	-17.3186	112.132	38.9648	91.2111
504508	0.646376	131.728	16.7379	131.821	-19.4218	104.793	19.0779	115.39	37.0582	110.394	10.191	132.43	-17.2445	112.36	39.1626	91.0616
504509	0.760032	131.927	16.897	131.993	-19.2354	104.934	19.3036	115.433	37.2874	110.407	10.3326	132.613	-17.1704	112.587	39.3604	90.9116
504510	0.873333	132.127	17.0557	132.167	-19.049	105.076	19.5292	115.477	37.5164	110.42	10.4738	132.797	-17.0965	112.814	39.5582	90.7613
504511	0.986278	132.326	17.214	132.34	-18.8628	105.218	19.7547	115.521	37.7455	110.434	10.6145	132.981	-17.0228	113.041	39.756	90.6106
504512	1.09886	132.526	17.3718	132.514	-18.6767	105.359	19.9801	115.566	37.9746	110.448	10.7548	133.166	-16.9491	113.268	39.9539	90.4594
504513	1.21109	132.726	17.5292	132.689	-18.4908	105.501	20.2054	115.612	38.2037	110.463	10.8947	133.351	-16.8756	113.495	40.1517	90.3078
504514	1.32296	132.927	17.6862	132.865	-18.3049	105.642	20.4307	115.658	38.4327	110.479	11.0342	133.536	-16.8022	113.722	40.3495	90.1558
504515	1.43446	133.127	17.8427	133.041	-18.1192	105.784	20.6559	115.704	38.6617	110.495	11.1733	133.722	-16.7289	113.949	40.5473	90.0033
504516	1.5456	133.328	17.9987	133.218	-17.9337	105.926	20.8809	115.751	38.8906	110.512	11.3119	133.908	-16.6557	114.176	40.7452	89.8504
504517	1.65637	133.529	18.1543	133.395	-17.7482	106.068	21.1059	115.799	39.1196	110.529	11.4501	134.095	-16.5827	114.403	40.943	89.697
504518	1.76677	133.73	18.3095	133.573	-17.5629	106.21	21.3308	115.847	39.3485	110.547	11.5878	134.282	-16.5098	114.63	41.1408	89.5431
504519	1.8768	133.931	18.4641	133.751	-17.3777	106.351	21.5556	115.896	39.5774	110.566	11.7251	134.47	-16.4371	114.857	41.3387	89.3888
504520	1.98646	134.133	18.6184	133.93	-17.1927	106.493	21.7803	115.945	39.8062	110.585	11.862	134.658	-16.3645	115.084	41.5365	89.234
504521	2.09574	134.334	18.7721	134.11	-17.0078	106.635	22.0049	115.995	40.0351	110.606	11.9984	134.846	-16.292	115.31	41.7343	89.0787
504522	2.20465	134.536	18.9254	134.29	-16.823	106.777	22.2295	116.046	40.2639	110.626	12.1344	135.035	-16.2196	115.537	41.9321	88.9229
504523	2.31318	134.739	19.0782	134.471	-16.6383	106.919	22.4539	116.097	40.4927	110.647	12.2699	135.224	-16.1474	115.764	42.1299	88.7666
504524	2.42134	134.941	19.2306	134.652	-16.4538	107.061	22.6782	116.149	40.7214	110.669	12.405	135.414	-16.0753	115.99	42.3276	88.6098
504525	2.52911	135.144	19.3825	134.834	-16.2695	107.204	22.9024	116.201	40.9501	110.692	12.5396	135.604	-16.0034	116.217	42.5254	88.4524
504526	2.6365	135.346	19.5339	135.017	-16.0853	107.346	23.1266	116.254	41.1788	110.716	12.6738	135.795	-15.9316	116.444	42.7231	88.2945
504527	2.7435	135.55	19.6848	135.201	-15.9012	107.488	23.3506	116.307	41.4074	110.74	12.8075	135.986	-15.8599	116.67	42.9209	88.1361
504528	2.85012	135.753	19.8352	135.384	-15.7173	107.631	23.5745	116.362	41.636	110.764	12.9407	136.177	-15.7884	116.897	43.1186	87.9771
504529	2.95635	135.956	19.9851	135.569	-15.5335	107.773	23.7983	116.416	41.8646	110.79	13.0735	136.369	-15.717	117.123	43.3163	87.8176
504530	3.0622	136.16	20.1346	135.754	-15.3499	107.916	24.022	116.472	42.0931	110.816	13.2058	136.561	-15.6458	117.349	43.514	87.6575
504531	3.16765	136.364	20.2835	135.94	-15.1664	108.058	24.2456	116.528	42.3216	110.843	13.3377	136.754	-15.5747	117.576	43.7116	87.4968
504532	3.2727	136.568	20.4319	136.127	-14.983	108.201	24.4691	116.584	42.55	110.871	13.4691	136.948	-15.5038	117.802	43.9093	87.3356
504533	3.37736	136.773	20.5799	136.314	-14.7998	108.344	24.6925	116.641	42.7784	110.899	13.6	137.141	-15.433	118.029	44.1069	87.1737
504534	3.48163	136.977	20.7273	136.501	-14.6168	108.487	24.9157	116.699	43.0067	110.928	13.7304	137.335	-15.3624	118.255	44.3044	87.0113
504535	3.58549	137.182	20.8742	136.69	-14.4339	108.63	25.1389	116.757	43.2351	110.958	13.8604	137.53	-15.2919	118.481	44.502	86.8482
504536	3.68896	137.387	21.0207	136.879	-14.2512	108.773	25.3619	116.817	43.4633	110.989	13.9898	137.725	-15.2215	118.707	44.6995	86.6844
504537	3.79202	137.593	21.1666	137.069	-14.0686	108.916	25.5848	116.876	43.6915	111.02	14.1188	137.921	-15.1514	118.934	44.897	86.5201
504538	3.89468	137.798	21.3119	137.259	-13.8862	109.059	25.8076	116.937	43.9197	111.052	14.2473	138.117	-15.0813	119.16	45.0944	86.3551
504539	3.99694	138.004	21.4568	137.45	-13.7039	109.203	26.0303	116.998	44.1478	111.085	14.3753	138.313	-15.0114	119.386	45.2918	86.1894
504540	4.09878	138.21	21.6011	137.641	-13.5218	109.346	26.2528	117.059	44.3759	111.119	14.5028	138.51	-14.9417	119.612	45.4892	86.0231
504541	4.20022	138.416	21.7449	137.834	-13.3399	109.49	26.4753	117.122	44.6039	111.154	14.6298	138.707	-14.8721	119.838	45.6865	85.8561
504542	4.30125	138.623	21.8882	138.026	-13.1581	109.633	26.6976	117.185	44.8318	111.189	14.7563	138.905	-14.8027	120.065	45.8838	85.6884
504543	4.40186	138.829	22.0309	138.22	-12.9765	109.777	26.9198	117.249	45.0597	111.225	14.8824	139.103	-14.7335	120.291	46.0811	85.52
504544	4.50206	139.036	22.1731	138.414	-12.795	109.921	27.1418	117.313	45.2876	111.263	15.0079	139.302	-14.6644	120.517	46.2783	85.3509
504545	4.60184	139.244	22.3148	138.609	-12.6137	110.065	27.3637	117.378	45.5154	111.301	15.1329	139.501	-14.5955	120.743	46.4755	85.181
504546	4.70121	139.451	22.4559	138.805	-12.4326	110.209	27.5855	117.444	45.7431	111.34	15.2574	139.7	-14.5267	120.969	46.6726	85.0105
504547	4.80016	139.659	22.5964	139.001	-12.2517	110.353	27.8072	117.51	45.9708	111.379	15.3814	139.9	-14.4581	121.195	46.8696	84.8392
504548	4.89868	139.866	22.7364	139.198	-12.0709	110.498	28.0287	117.578	46.1984	111.42	15.5049	140.101	-14.3896	121.421	47.0666	84.6671
504549	4.99678	140.074	22.8759	139.395	-11.8902	110.642	28.2501	117.646	46.4259	111.462	15.6278	140.302	-14.3214	121.647	47.2636	84.4942
504550	5.09445	140.283	23.0147	139.594	-11.7098	110.787	28.4714	117.714	46.6534	111.504	15.7503	140.503	-14.2532	121.873	47.4605	84.3206
504551	5.1917	140.491	23.1531	139.792	-11.5295	110.931	28.6925	117.784	46.8808	111.548	15.8722	140.705	-14.1853	122.099	47.6573	84.1461
504552	5.28852	140.7	23.2908	139.992	-11.3494	111.076	28.9134	117.854	47.1081	111.592	15.9936	140.908	-14.1175	122.325	47.854	83.9709
504553	5.38491	140.909	23.428	140.192	-11.1695	111.221	29.1343	117.925	47.3354	111.638	16.1145	141.11	-14.0499	122.551	48.0508	83.7948
504554	5.48087	141.118	23.5646	140.393	-10.9898	111.367	29.3549	117.996	47.5626	111.684	16.2348	141.314	-13.9825	122.777	48.2474	83.6179
504555	5.57639	141.328	23.7006	140.595	-10.8102	111.512	29.5755	118.069	47.7897	111.731	16.3546	141.518	-13.9152	123.003	48.444	83.4401
504556	5.67148	141.537	23.8361	140.797	-10.6308	111.657	29.7959	118.142	48.0167	111.78	16.4739	141.722	-13.8481	123.229	48.6405	83.2614
504557	5.76613	141.747	23.9709	141	-10.4516	111.803	30.0161	118.216	48.2437	111.829	16.5926	141.926	-13.7812	123.455	48.8369	83.0819
504558	5.86034	141.958	24.1052	141.203	-10.2726	111.949	30.2362	118.29	48.4706	111.879	16.7108	142.131	-13.7144	123.68	49.0332	82.9015
504559	5.95411	142.168	24.2388	141.408	-10.0937	112.094	30.4561	118.365	48.6974	111.931	16.8284	142.337	-13.6479	123.906	49.2295	82.7202
504560	6.04744	142.379	24.3719	141.613	-9.91509	112.241	30.6759	118.442	48.9241	111.983	16.9455	142.543	-13.5815	124.132	49.4257	82.538
504561	6.14032	142.59	24.5044	141.818	-9.73662	112.387	30.8955	118.519	49.1508	112.037	17.0621	142.75	-13.5152	124.358	49.6218	82.3548
504562	6.23276	142.801	24.6363	142.024	-9.55833	112.533	31.1149	118.596	49.3773	112.092	17.1781	142.957	-13.4492	124.584	49.8178	82.1706
504563	6.32475	143.012	24.7675	142.232	-9.38024	112.68	31.3342	118.675	49.6038	112.147	17.2935	143.164	-13.3833	124.81	50.0138	81.9855
504564	6.41629	143.224	24.8982	142.439	-9.20234	112.826	31.5533	118.754	49.8302	112.204	17.4084	143.372	-13.3177	125.036	50.2097	81.7994
504565	6.50737	143.435	25.0282	142.648	-9.02463	112.973	31.7722	118.835	50.0564	112.263	17.5227	143.581	-13.2522	125.261	50.4054	81.6124
504566	6.59801	143.648	25.1576	142.857	-8.84711	113.12	31.991	118.916	50.2826	112.322	17.6365	143.79	-13.1868	125.487	50.6011	81.4243
504567	6.68819	143.86	25.2864	143.066	-8.66978	113.267	32.2096	118.998	50.5087	112.382	17.7497	143.999	-13.1217	125.713	50.7966	81.2351
504568	6.77791	144.072	25.4146	143.277	-8.49266	113.415	32.4281	119.08	50.7347	112.444	17.8623	144.209	-13.0567	125.939	50.9921	81.0449
504569	6.86717	144.285	25.5421	143.488	-8.31573	113.562	32.6463	119.164	50.9606	112.507	17.9744	144.419	-12.992	126.165	51.1875	80.8537
504570	6.95598	144.498	25.669	143.7	-8.13899	113.71	32.8644	119.248	51.1864	112.571	18.0859	144.63	-12.9274	126.391	51.3827	80.6613
504571	7.04432	144.711	25.7953	143.912	-7.96246	113.858	33.0823	119.334	51.412	112.636	18.1968	144.841	-12.863	126.616	51.5779	80.4679
504572	7.1322	144.925	25.9209	144.126	-7.78613	114.006	33.3	119.42	51.6376	112.703	18.3071	145.053	-12.7988	126.842	51.7729	80.2733
504573	7.21961	145.139	26.0459	144.34	-7.61	114.154	33.5176	119.507	51.8631	112.771	18.4169	145.265	-12.7348	127.068	51.9679	80.0776
504574	7.30656	145.352	26.1702	144.554	-7.43408	114.302	33.7349	119.595	52.0884	112.84	18.526	145.478	-12.671	127.294	52.1627	79.8807
504575	7.39303	145.567	26.2939	144.769	-7.25836	114.451	33.952	119.684	52.3136	112.91	18.6346	145.691	-12.6073	127.52	52.3574	79.6827
504576	7.47904	145.781	26.4169	144.986	-7.08285	114.6	34.169	119.773	52.5388	112.982	18.7426	145.904	-12.5439	127.746	52.5519	79.4834
504577	7.56457	145.996	26.5393	145.202	-6.90755	114.749	34.3858	119.864	52.7637	113.056	18.85	146.118	-12.4806	127.971	52.7464	79.283
504578	7.64963	146.211	26.6609	145.42	-6.73246	114.898	34.6023	119.956	52.9886	113.13	18.9567	146.333	-12.4176	128.197	52.9407	79.0813
504579	7.73421	146.426	26.782	145.638	-6.55758	115.047	34.8187	120.048	53.2133	113.207	19.0629	146.548	-12.3547	128.423	53.1349	78.8783
504580	7.81832	146.641	26.9023	145.857	-6.38292	115.197	35.0349	120.142	53.438	113.284	19.1685	146.763	-12.2921	128.649	53.3289	78.6741
504581	7.90195	146.857	27.022	146.076	-6.20847	115.347	35.2508	120.236	53.6624	113.363	19.2735	146.979	-12.2296	128.875	53.5228	78.4685
504582	7.9851	147.072	27.141	146.296	-6.03423	115.497	35.4666	120.331	53.8868	113.444	19.3779	147.196	-12.1673	129.1	53.7166	78.2617
504583	8.06776	147.288	27.2593	146.517	-5.86021	115.647	35.6821	120.428	54.111	113.526	19.4816	147.413	-12.1053	129.326	53.9102	78.0535
504584	8.14994	147.505	27.3769	146.739	-5.68641	115.797	35.8974	120.525	54.3351	113.61	19.5848	147.63	-12.0434	129.552	54.1037	77.8439
504585	8.23163	147.721	27.4938	146.961	-5.51283	115.948	36.1125	120.624	54.559	113.695	19.6873	147.848	-11.9817	129.778	54.297	77.633
504586	8.31284	147.938	27.61	147.184	-5.33948	116.099	36.3274	120.723	54.7827	113.782	19.7893	148.066	-11.9203	130.004	54.4902	77.4206
504587	8.39356	148.155	27.7256	147.408	-5.16635	116.25	36.5421	120.823	55.0064	113.871	19.8906	148.285	-11.859	130.23	54.6832	77.2068
504588	8.47378	148.372	27.8404	147.632	-4.99344	116.401	36.7565	120.925	55.2298	113.961	19.9912	148.504	-11.798	130.456	54.876	76.9915
504589	8.55352	148.59	27.9545	147.857	-4.82076	116.553	36.9707	121.027	55.4531	114.053	20.0913	148.724	-11.7371	130.681	55.0687	76.7748
504590	8.63275	148.807	28.0679	148.083	-4.6483	116.704	37.1847	121.13	55.6763	114.146	20.1907	148.944	-11.6765	130.907	55.2612	76.5565
504591	8.7115	149.025	28.1806	148.31	-4.47608	116.856	37.3985	121.235	55.8993	114.242	20.2895	149.165	-11.616	131.133	55.4535	76.3367
504592	8.78974	149.243	28.2925	148.537	-4.30409	117.009	37.612	121.341	56.1221	114.339	20.3876	149.386	-11.5558	131.359	55.6457	76.1153
504593	8.86749	149.462	28.4038	148.765	-4.13233	117.161	37.8252	121.447	56.3447	114.438	20.4851	149.607	-11.4958	131.585	55.8376	75.8924
504594	8.94473	149.68	28.5143	148.993	-3.96081	117.314	38.0383	121.555	56.5672	114.539	20.582	149.829	-11.436	131.811	56.0294	75.6678
504595	9.02148	149.899	28.6241	149.223	-3.78952	117.466	38.251	121.664	56.7895	114.642	20.6782	150.052	-11.3764	132.037	56.221	75.4416
504596	9.09771	150.118	28.7331	149.452	-3.61847	117.62	38.4636	121.774	57.0116	114.746	20.7738	150.274	-11.317	132.263	56.4123	75.2137
504597	9.17344	150.337	28.8414	149.683	-3.44766	117.773	38.6758	121.885	57.2335	114.853	20.8687	150.498	-11.2578	132.489	56.6035	74.9841
504598	9.24867	150.557	28.9489	149.915	-3.27709	117.927	38.8878	121.997	57.4552	114.962	20.9629	150.722	-11.1988	132.715	56.7945	74.7528
504599	9.32339	150.777	29.0557	150.147	-3.10676	118.08	39.0996	122.11	57.6767	115.073	21.0566	150.946	-11.1401	132.941	56.9853	74.5197
504600	9.39759	150.996	29.1618	150.379	-2.93668	118.234	39.3111	122.225	57.898	115.185	21.1495	151.171	-11.0816	133.167	57.1758	74.2849
504601	9.47128	151.217	29.2671	150.613	-2.76684	118.389	39.5223	122.341	58.1191	115.3	21.2418	151.396	-11.0232	133.393	57.3661	74.0482
504602	9.54446	151.437	29.3716	150.847	-2.59725	118.543	39.7332	122.457	58.34	115.418	21.3334	151.621	-10.9651	133.619	57.5562	73.8097
504603	9.61712	151.658	29.4754	151.082	-2.4279	118.698	39.9439	122.575	58.5607	115.537	21.4244	151.848	-10.9072	133.845	57.7461	73.5692
504604	9.68927	151.879	29.5784	151.317	-2.25881	118.853	40.1543	122.695	58.7812	115.658	21.5147	152.074	-10.8496	134.071	57.9357	73.3269
504605	9.76089	152.1	29.6807	151.553	-2.08997	119.009	40.3644	122.815	59.0014	115.782	21.6043	152.301	-10.7921	134.297	58.1251	73.0826
504606	9.832	152.321	29.7821	151.79	-1.92139	119.164	40.5743	122.937	59.2214	115.909	21.6933	152.529	-10.7349	134.523	58.3143	72.8363
504607	9.90259	152.542	29.8828	152.028	-1.75306	119.32	40.7838	123.06	59.4412	116.037	21.7816	152.756	-10.6779	134.749	58.5031	72.588
504608	9.97265	152.764	29.9827	152.266	-1.58499	119.476	40.993	123.184	59.6607	116.168	21.8692	152.985	-10.6211	134.975	58.6918	72.3377
504609	10.0422	152.986	30.0818	152.505	-1.41717	119.632	41.202	123.309	59.88	116.302	21.9561	153.214	-10.5646	135.201	58.8802	72.0853
504610	10.1112	153.208	30.1801	152.744	-1.24962	119.789	41.4106	123.436	60.099	116.438	22.0423	153.443	-10.5082	135.427	59.0683	71.8307
504611	10.1797	153.43	30.2776	152.985	-1.08233	119.946	41.619	123.564	60.3177	116.576	22.1278	153.672	-10.4521	135.654	59.2561	71.5739
504612	10.2476	153.653	30.3743	153.226	-0.915302	120.103	41.827	123.694	60.5362	116.718	22.2127	153.902	-10.3963	135.88	59.4436	71.315
504613	10.315	153.876	30.4703	153.467	-0.748541	120.261	42.0347	123.824	60.7544	116.862	22.2968	154.133	-10.3406	136.106	59.6309	71.0538
504614	10.3819	154.099	30.5653	153.709	-0.582047	120.418	42.2421	123.956	60.9724	117.008	22.3803	154.364	-10.2852	136.332	59.8179	70.7904
504615	10.4483	154.322	30.6596	153.952	-0.415822	120.577	42.4492	124.09	61.19	117.158	22.463	154.595	-10.23	136.558	60.0045	70.5246
504616	10.5141	154.546	30.7531	154.196	-0.249869	120.735	42.6559	124.225	61.4074	117.31	22.5451	154.827	-10.175	136.785	60.1909	70.2564
504617	10.5794	154.769	30.8458	154.44	-0.084188	120.894	42.8623	124.361	61.6244	117.466	22.6264	155.059	-10.1203	137.011	60.3769	69.9859
504618	10.6441	154.993	30.9376	154.685	0.0812184	121.052	43.0684	124.498	61.8412	117.624	22.7071	155.292	-10.0658	137.237	60.5627	69.7129
504619	10.7083	155.217	31.0286	154.931	0.246349	121.212	43.2741	124.637	62.0576	117.785	22.787	155.525	-10.0115	137.463	60.7481	69.4374
504620	10.772	155.441	31.1188	155.177	0.411201	121.371	43.4795	124.778	62.2737	117.95	22.8662	155.759	-9.95747	137.69	60.9331	69.1594
504621	10.8351	155.666	31.2081	155.424	0.575773	121.531	43.6846	124.92	62.4895	118.117	22.9447	155.993	-9.90366	137.916	61.1178	68.8787
504622	10.8977	155.89	31.2966	155.671	0.740064	121.691	43.8892	125.063	62.7049	118.288	23.0225	156.227	-9.85009	138.142	61.3022	68.5955
504623	10.9597	156.115	31.3843	155.919	0.904071	121.851	44.0936	125.208	62.92	118.463	23.0996	156.462	-9.79676	138.369	61.4862	68.3096
504624	11.0212	156.34	31.4711	156.168	1.06779	122.012	44.2975	125.354	63.1347	118.64	23.176	156.697	-9.74366	138.595	61.6698	68.0209
504625	11.0821	156.566	31.5571	156.418	1.23123	122.173	44.5011	125.502	63.3491	118.821	23.2516	156.933	-9.6908	138.821	61.8531	67.7295
504626	11.1425	156.791	31.6422	156.668	1.39437	122.334	44.7043	125.651	63.5631	119.006	23.3265	157.168	-9.63818	139.048	62.036	67.4352
504627	11.2023	157.017	31.7264	156.918	1.55723	122.495	44.9071	125.802	63.7767	119.194	23.4006	157.405	-9.5858	139.274	62.2185	67.1381
504628	11.2616	157.243	31.8098	157.17	1.71979	122.657	45.1095	125.955	63.9899	119.386	23.4741	157.642	-9.53366	139.501	62.4006	66.838
504629	11.3203	157.469	31.8924	157.422	1.88206	122.819	45.3116	126.109	64.2027	119.582	23.5468	157.879	-9.48176	139.727	62.5823	66.535
504630	11.3784	157.695	31.974	157.674	2.04404	122.982	45.5132	126.264	64.415	119.782	23.6187	158.117	-9.4301	139.954	62.7635	66.2289
504631	11.436	157.922	32.0548	157.927	2.20571	123.145	45.7145	126.422	64.627	119.986	23.69	158.355	-9.37868	140.18	62.9444	65.9197
504632	11.4931	158.148	32.1347	158.181	2.36708	123.308	45.9153	126.581	64.8385	120.193	23.7604	158.593	-9.32751	140.407	63.1247	65.6074
504633	11.5496	158.375	32.2137	158.435	2.52816	123.471	46.1157	126.741	65.0495	120.405	23.8302	158.832	-9.27658	140.634	63.3047	65.2919
504634	11.6055	158.602	32.2918	158.69	2.68893	123.635	46.3157	126.903	65.2601	120.621	23.8992	159.071	-9.22589	140.86	63.4842	64.9731
504635	11.6608	158.829	32.3691	158.946	2.84939	123.799	46.5153	127.067	65.4703	120.842	23.9674	159.31	-9.17545	141.087	63.6632	64.651
504636	11.7156	159.057	32.4455	159.202	3.00954	123.963	46.7144	127.233	65.6799	121.067	24.0349	159.55	-9.12526	141.314	63.8417	64.3255
504637	11.7699	159.284	32.5209	159.459	3.16939	124.128	46.9131	127.4	65.889	121.296	24.1016	159.791	-9.07532	141.54	64.0198	63.9966
504638	11.8235	159.512	32.5955	159.716	3.32892	124.293	47.1114	127.569	66.0977	121.53	24.1676	160.031	-9.02562	141.767	64.1974	63.6641
504639	11.8766	159.74	32.6692	159.974	3.48815	124.459	47.3092	127.74	66.3058	121.769	24.2328	160.272	-8.97617	141.994	64.3744	63.3281
504640	11.9291	159.968	32.7419	160.232	3.64705	124.624	47.5065	127.913	66.5133	122.013	24.2973	160.514	-8.92698	142.221	64.5509	62.9885
504641	11.9811	160.196	32.8138	160.492	3.80564	124.79	47.7034	128.087	66.7203	122.262	24.361	160.756	-8.87803	142.447	64.7269	62.6451
504642	12.0325	160.425	32.8847	160.751	3.96391	124.957	47.8998	128.264	66.9267	122.516	24.4239	160.998	-8.82933	142.674	64.9023	62.298
504643	12.0833	160.654	32.9547	161.011	4.12186	125.123	48.0957	128.442	67.1326	122.775	24.486	161.24	-8.78089	142.901	65.0772	61.947
504644	12.1335	160.883	33.0238	161.272	4.27948	125.29	48.2912	128.622	67.3378	123.04	24.5474	161.483	-8.7327	143.128	65.2515	61.5921
504645	12.1832	161.112	33.092	161.533	4.43678	125.458	48.4861	128.804	67.5424	123.31	24.608	161.726	-8.68477	143.355	65.4252	61.2333
504646	12.2323	161.341	33.1593	161.795	4.59375	125.626	48.6805	128.988	67.7464	123.585	24.6679	161.97	-8.63708	143.582	65.5983	60.8703
504647	12.2807	161.57	33.2256	162.057	4.75039	125.794	48.8745	129.173	67.9497	123.867	24.7269	162.214	-8.58966	143.809	65.7708	60.5033
504648	12.3287	161.8	33.291	162.32	4.9067	125.962	49.0679	129.361	68.1523	124.154	24.7852	162.458	-8.54249	144.036	65.9427	60.132
504649	12.376	162.03	33.3555	162.584	5.06268	126.131	49.2608	129.551	68.3542	124.448	24.8427	162.703	-8.49557	144.263	66.114	59.7565
504650	12.4228	162.259	33.419	162.848	5.21832	126.3	49.4532	129.743	68.5555	124.747	24.8994	162.948	-8.44892	144.49	66.2845	59.3766
504651	12.4689	162.489	33.4816	163.112	5.37363	126.469	49.645	129.936	68.7559	125.053	24.9554	163.193	-8.40252	144.717	66.4544	58.9923
504652	12.5145	162.72	33.5432	163.377	5.52859	126.639	49.8363	130.132	68.9557	125.366	25.0105	163.439	-8.35638	144.944	66.6237	58.6035
504653	12.5595	162.95	33.6039	163.642	5.68322	126.809	50.027	130.33	69.1546	125.685	25.0648	163.685	-8.31051	145.171	66.7922	58.2101
504654	12.6039	163.181	33.6636	163.908	5.8375	126.98	50.2172	130.53	69.3528	126.011	25.1184	163.931	-8.26489	145.398	66.96	57.8119
504655	12.6478	163.411	33.7224	164.175	5.99143	127.151	50.4068	130.732	69.5501	126.344	25.1712	164.177	-8.21953	145.625	67.127	57.4091
504656	12.691	163.642	33.7802	164.442	6.14501	127.322	50.5958	130.936	69.7465	126.684	25.2232	164.424	-8.17444	145.852	67.2933	57.0014
504657	12.7337	163.873	33.8371	164.709	6.29825	127.494	50.7843	131.142	69.9421	127.032	25.2743	164.671	-8.12961	146.08	67.4589	56.5887
504658	12.7757	164.104	33.893	164.977	6.45113	127.666	50.9721	131.351	70.1368	127.387	25.3247	164.919	-8.08504	146.307	67.6236	56.171
504659	12.8172	164.336	33.9479	165.245	6.60366	127.838	51.1594	131.562	70.3306	127.75	25.3743	165.167	-8.04074	146.534	67.7875	55.7482
504660	12.8581	164.567	34.0018	165.514	6.75584	128.011	51.346	131.775	70.5234	128.121	25.423	165.415	-7.99671	146.761	67.9506	55.3203
504661	12.8984	164.799	34.0548	165.783	6.90765	128.184	51.532	131.99	70.7152	128.5	25.471	165.663	-7.95293	146.989	68.1129	54.887
504662	12.9381	165.03	34.1069	166.053	7.0591	128.358	51.7174	132.207	70.906	128.887	25.5181	165.912	-7.90943	147.216	68.2743	54.4484
504663	12.9771	165.262	34.1579	166.323	7.21019	128.532	51.9021	132.427	71.0957	129.282	25.5645	166.161	-7.86619	147.444	68.4348	54.0043
504664	13.0156	165.494	34.2079	166.594	7.36092	128.706	52.0862	132.649	71.2844	129.687	25.61	166.41	-7.82322	147.671	68.5944	53.5546
504665	13.0535	165.726	34.257	166.865	7.51127	128.881	52.2696	132.874	71.472	130.1	25.6547	166.659	-7.78052	147.898	68.7531	53.0993
504666	13.0908	165.959	34.3051	167.136	7.66126	129.056	52.4524	133.101	71.6583	130.523	25.6987	166.909	-7.73809	148.126	68.9108	52.6382
504667	13.1275	166.191	34.3522	167.408	7.81088	129.231	52.6345	133.33	71.8436	130.955	25.7417	167.159	-7.69593	148.353	69.0676	52.1713
504668	13.1636	166.424	34.3983	167.68	7.96012	129.407	52.8159	133.562	72.0276	131.396	25.784	167.409	-7.65404	148.581	69.2233	51.6984
504669	13.1991	166.657	34.4434	167.953	8.10899	129.583	52.9965	133.796	72.2103	131.847	25.8255	167.66	-7.61242	148.808	69.3781	51.2195
504670	13.234	166.889	34.4875	168.226	8.25747	129.76	53.1765	134.033	72.3917	132.309	25.8661	167.911	-7.57108	149.036	69.5318	50.7345
504671	13.2683	167.122	34.5307	168.499	8.40558	129.937	53.3558	134.272	72.5718	132.781	25.9059	168.162	-7.53	149.264	69.6844	50.2432
504672	13.3019	167.356	34.5728	168.773	8.5533	130.114	53.5343	134.514	72.7505	133.263	25.9449	168.413	-7.4892	149.491	69.8359	49.7456
504673	13.335	167.589	34.6139	169.047	8.70064	130.292	53.7121	134.758	72.9278	133.756	25.9831	168.665	-7.44868	149.719	69.9864	49.2416
504674	13.3675	167.822	34.654	169.321	8.84759	130.47	53.8891	135.005	73.1037	134.26	26.0204	168.916	-7.40843	149.947	70.1357	48.731
504675	13.3994	168.055	34.6931	169.596	8.99415	130.648	54.0654	135.254	73.278	134.776	26.0569	169.168	-7.36845	150.174	70.2838	48.2138
504676	13.4306	168.289	34.7312	169.871	9.14032	130.827	54.2409	135.506	73.4507	135.303	26.0926	169.421	-7.32876	150.402	70.4307	47.6899
504677	13.4612	168.523	34.7683	170.147	9.2861	131.007	54.4155	135.761	73.6218	135.841	26.1274	169.673	-7.28933	150.63	70.5764	47.1592
504678	13.4913	168.757	34.8044	170.422	9.43148	131.187	54.5894	136.019	73.7912	136.392	26.1614	169.926	-7.25019	150.858	70.7208	46.6216
504679	13.5207	168.99	34.8394	170.698	9.57645	131.367	54.7625	136.279	73.959	136.956	26.1946	170.179	-7.21133	151.085	70.864	46.0769
504680	13.5495	169.225	34.8735	170.975	9.72103	131.547	54.9348	136.542	74.1249	137.531	26.2269	170.432	-7.17274	151.313	71.0058	45.5252
504681	13.5777	169.459	34.9065	171.252	9.8652	131.728	55.1062	136.808	74.289	138.12	26.2584	170.685	-7.13443	151.541	71.1463	44.9662
504682	13.6053	169.693	34.9385	171.529	10.009	131.91	55.2768	137.076	74.4513	138.722	26.2891	170.938	-7.0964	151.769	71.2854	44.4
504683	13.6323	169.927	34.9695	171.806	10.1523	132.092	55.4465	137.348	74.6115	139.337	26.3189	171.192	-7.05866	151.997	71.4231	43.8264
504684	13.6586	170.162	34.9994	172.083	10.2953	132.274	55.6153	137.622	74.7698	139.965	26.3479	171.446	-7.02119	152.225	71.5594	43.2453
504685	13.6844	170.396	35.0283	172.361	10.4378	132.457	55.7833	137.899	74.926	140.608	26.376	171.7	-6.98401	152.453	71.6942	42.6566
504686	13.7095	170.631	35.0562	172.639	10.5799	132.64	55.9503	138.179	75.08	141.264	26.4033	171.954	-6.94711	152.681	71.8275	42.0603
504687	13.734	170.866	35.0831	172.917	10.7216	132.823	56.1164	138.462	75.2319	141.935	26.4298	172.208	-6.9105	152.909	71.9592	41.4563
504688	13.7579	171.1	35.1089	173.196	10.8629	133.007	56.2816	138.748	75.3814	142.621	26.4554	172.463	-6.87416	153.137	72.0894	40.8445
504689	13.7812	171.335	35.1337	173.475	11.0038	133.191	56.4459	139.037	75.5286	143.321	26.4802	172.718	-6.83812	153.365	72.218	40.2249
504690	13.8038	171.57	35.1575	173.754	11.1442	133.376	56.6092	139.329	75.6734	144.036	26.5041	172.973	-6.80235	153.594	72.3449	39.5972
504691	13.8259	171.805	35.1802	174.033	11.2842	133.561	56.7715	139.624	75.8157	144.767	26.5271	173.228	-6.76688	153.822	72.4702	38.9616
504692	13.8473	172.041	35.2019	174.312	11.4238	133.747	56.9329	139.922	75.9554	145.513	26.5494	173.483	-6.73169	154.05	72.5938	38.3178
504693	13.8681	172.276	35.2226	174.592	11.5629	133.933	57.0932	140.223	76.0925	146.274	26.5707	173.738	-6.69678	154.278	72.7155	37.666
504694	13.8883	172.511	35.2422	174.871	11.7016	134.119	57.2525	140.528	76.2268	147.051	26.5912	173.993	-6.66217	154.506	72.8355	37.0059
504695	13.9078	172.746	35.2608	175.151	11.8399	134.306	57.4108	140.835	76.3584	147.844	26.6109	174.249	-6.62784	154.735	72.9537	36.3377
504696	13.9268	172.982	35.2783	175.431	11.9777	134.494	57.5681	141.146	76.487	148.653	26.6297	174.505	-6.5938	154.963	73.07	35.6611
504697	13.9451	173.218	35.2948	175.712	12.1151	134.681	57.7243	141.46	76.6127	149.478	26.6477	174.761	-6.56005	155.191	73.1844	34.9762
504698	13.9627	173.453	35.3103	175.992	12.2521	134.87	57.8794	141.777	76.7352	150.319	26.6648	175.016	-6.52659	155.42	73.2968	34.283
504699	13.9798	173.689	35.3247	176.273	12.3885	135.058	58.0334	142.097	76.8547	151.176	26.681	175.272	-6.49342	155.648	73.4072	33.5814
504700	13.9963	173.925	35.3381	176.553	12.5246	135.247	58.1863	142.42	76.9709	152.049	26.6964	175.529	-6.46054	155.877	73.5156	32.8714
504701	14.0121	174.16	35.3504	176.834	12.6602	135.437	58.3381	142.747	77.0838	152.938	26.7109	175.785	-6.42796	156.105	73.622	32.153
504702	14.0273	174.396	35.3616	177.115	12.7953	135.627	58.4888	143.077	77.1933	153.844	26.7246	176.041	-6.39566	156.334	73.7262	31.4263
504703	14.0418	174.632	35.3719	177.396	12.93	135.817	58.6383	143.411	77.2993	154.765	26.7374	176.297	-6.36366	156.562	73.8283	30.6912
504704	14.0558	174.868	35.381	177.677	13.0642	136.008	58.7866	143.748	77.4017	155.702	26.7494	176.554	-6.33195	156.791	73.9282	29.9477
504705	14.0691	175.104	35.3892	177.958	13.198	136.2	58.9338	144.088	77.5004	156.655	26.7605	176.81	-6.30054	157.019	74.0258	29.1958
504706	14.0818	175.34	35.3963	178.239	13.3312	136.391	59.0797	144.431	77.5954	157.623	26.7707	177.067	-6.26942	157.248	74.1212	28.4357
504707	14.0938	175.576	35.4023	178.52	13.4641	136.583	59.2244	144.779	77.6865	158.606	26.7801	177.324	-6.23859	157.476	74.2142	27.6674
504708	14.1053	175.813	35.4073	178.802	13.5964	136.776	59.3679	145.129	77.7737	159.604	26.7887	177.58	-6.20806	157.705	74.3049	26.8909
504709	14.1161	176.049	35.4112	179.083	13.7283	136.969	59.5101	145.483	77.8568	160.617	26.7963	177.837	-6.17783	157.934	74.3932	26.1062
504710	14.1263	176.285	35.4141	179.364	13.8597	137.163	59.651	145.84	77.9359	161.644	26.8031	178.094	-6.14789	158.163	74.479	25.3136
504711	14.1358	176.521	35.4159	179.646	13.9906	137.357	59.7906	146.201	78.0107	162.684	26.8091	178.351	-6.11825	158.391	74.5624	24.513
504712	14.1448	176.758	35.4167	179.927	14.1211	137.551	59.9289	146.565	78.0813	163.738	26.8142	178.608	-6.08891	158.62	74.6432	23.7047
504713	14.1531	176.994	35.4164	180.209	14.251	137.746	60.0659	146.933	78.1476	164.804	26.8184	178.865	-6.05986	158.849	74.7214	22.8886
504714	14.1607	177.23	35.4151	180.49	14.3805	137.942	60.2015	147.305	78.2094	165.882	26.8217	179.122	-6.03111	159.078	74.7971	22.065
504715	14.1678	177.467	35.4127	180.772	14.5095	138.137	60.3358	147.679	78.2668	166.971	26.8242	179.379	-6.00266	159.306	74.8701	21.2339
504716	14.1742	177.703	35.4093	181.053	14.638	138.334	60.4687	148.058	78.3196	168.071	26.8259	179.636	-5.97452	159.535	74.9404	20.3957
504717	14.18	177.94	35.4048	181.334	14.7659	138.53	60.6001	148.44	78.3678	169.181	26.8266	179.893	-5.94667	159.764	75.008	19.5503
504718	14.1851	178.176	35.3993	181.615	14.8934	138.728	60.7302	148.826	78.4113	170.3	26.8266	180.15	-5.91912	159.993	75.0728	18.6981
504719	14.1896	178.413	35.3927	181.897	15.0204	138.925	60.8588	149.215	78.4501	171.427	26.8256	180.407	-5.89187	160.222	75.1348	17.8392
504720	14.1935	178.649	35.3851	182.178	15.1469	139.124	60.9859	149.608	78.4842	172.561	26.8238	180.664	-5.86492	160.451	75.194	16.9738
504721	14.1968	178.886	35.3765	182.459	15.2729	139.322	61.1115	150.004	78.5134	173.702	26.8211	180.921	-5.83828	160.68	75.2503	16.1022
504722	14.1994	179.122	35.3668	182.74	15.3984	139.521	61.2357	150.404	78.5378	174.848	26.8176	181.178	-5.81194	160.909	75.3038	15.2247
504723	14.2014	179.359	35.356	183.021	15.5234	139.721	61.3583	150.807	78.5572	175.999	26.8132	181.435	-5.7859	161.138	75.3543	14.3413
504724	14.2028	179.595	35.3442	183.302	15.6478	139.921	61.4794	151.215	78.5718	177.154	26.808	181.691	-5.76016	161.367	75.4018	13.4526
504725	14.2036	179.832	35.3313	183.582	15.7718	140.121	61.5989	151.625	78.5815	178.311	26.8018	181.948	-5.73472	161.596	75.4463	12.5586
504726	14.2037	180.069	35.3174	183.863	15.8952	140.322	61.7168	152.04	78.5862	179.469	26.7949	182.205	-5.7096	161.825	75.4878	11.6597
504727	14.2032	180.305	35.3025	184.143	16.0181	140.523	61.8331	152.458	78.586	180.628	26.787	182.462	-5.68477	162.054	75.5263	10.7563
504728	14.202	180.542	35.2865	184.424	16.1405	140.725	61.9478	152.879	78.5808	181.786	26.7783	182.719	-5.66025	162.284	75.5617	9.84858
504729	14.2003	180.778	35.2695	184.704	16.2624	140.928	62.0609	153.304	78.5707	182.943	26.7688	182.975	-5.63603	162.513	75.594	8.93694
504730	14.1979	181.015	35.2514	184.984	16.3837	141.13	62.1723	153.733	78.5557	184.097	26.7583	183.232	-5.61213	162.742	75.6232	8.02169
504731	14.1948	181.251	35.2323	185.264	16.5045	141.334	62.282	154.165	78.5357	185.248	26.7471	183.488	-5.58852	162.971	75.6492	7.10319
504732	14.1912	181.488	35.2121	185.543	16.6247	141.537	62.39	154.601	78.5109	186.394	26.7349	183.745	-5.56523	163.2	75.6722	6.18179
504733	14.1869	181.725	35.1909	185.823	16.7444	141.742	62.4963	155.04	78.4813	187.534	26.7219	184.001	-5.54224	163.43	75.6919	5.25785
504734	14.1819	181.961	35.1687	186.102	16.8636	141.946	62.6008	155.483	78.4468	188.668	26.7081	184.257	-5.51955	163.659	75.7084	4.33174
504735	14.1764	182.197	35.1454	186.381	16.9823	142.151	62.7036	155.929	78.4076	189.794	26.6934	184.514	-5.49718	163.888	75.7218	3.40384
504736	14.1702	182.434	35.1211	186.66	17.1003	142.357	62.8046	156.379	78.3636	190.912	26.6778	184.77	-5.47511	164.118	75.7319	2.47452
504737	14.1634	182.67	35.0958	186.939	17.2179	142.563	62.9038	156.832	78.315	192.021	26.6614	185.026	-5.45336	164.347	75.7389	1.54417
504738	14.156	182.907	35.0694	187.217	17.3349	142.77	63.0012	157.289	78.2618	193.12	26.6441	185.281	-5.43191	164.576	75.7426	0.613177
504739	14.1479	183.143	35.0421	187.495	17.4513	142.977	63.0967	157.749	78.204	194.209	26.626	185.537	-5.41077	164.806	75.7432	359.682
504740	14.1392	183.379	35.0136	187.773	17.5672	143.184	63.1904	158.212	78.1418	195.286	26.607	185.793	-5.38994	165.035	75.7405	358.751
504741	14.1299	183.616	34.9842	188.051	17.6825	143.392	63.2821	158.679	78.0751	196.351	26.5872	186.048	-5.36942	165.264	75.7346	357.82
504742	14.1199	183.852	34.9537	188.328	17.7972	143.601	63.372	159.149	78.0041	197.403	26.5665	186.304	-5.34921	165.494	75.7255	356.891
504743	14.1094	184.088	34.9222	188.605	17.9114	143.81	63.46	159.622	77.9289	198.442	26.545	186.559	-5.32931	165.724	75.7131	355.962
504744	14.0982	184.324	34.8897	188.882	18.0251	144.019	63.546	160.099	77.8495	199.468	26.5226	186.814	-5.30972	165.953	75.6976	355.036
504745	14.0863	184.561	34.8561	189.159	18.1381	144.229	63.63	160.579	77.766	200.479	26.4993	187.069	-5.29044	166.183	75.6789	354.111
504746	14.0739	184.797	34.8216	189.435	18.2506	144.44	63.7121	161.061	77.6784	201.476	26.4753	187.324	-5.27148	166.412	75.6571	353.188
504747	14.0608	185.033	34.786	189.711	18.3625	144.65	63.7922	161.547	77.587	202.458	26.4503	187.579	-5.25282	166.642	75.6321	352.269
504748	14.0471	185.269	34.7494	189.986	18.4738	144.862	63.8702	162.036	77.4917	203.424	26.4246	187.833	-5.23448	166.871	75.6039	351.353
504749	14.0327	185.505	34.7118	190.262	18.5845	145.074	63.9462	162.528	77.3926	204.376	26.3979	188.088	-5.21645	167.101	75.5726	350.44
504750	14.0178	185.74	34.6732	190.537	18.6947	145.286	64.0202	163.023	77.2899	205.312	26.3705	188.342	-5.19874	167.33	75.5382	349.531
504751	14.0022	185.976	34.6336	190.811	18.8042	145.499	64.0921	163.521	77.1836	206.231	26.3422	188.596	-5.18134	167.56	75.5007	348.626
504752	13.986	186.212	34.5929	191.085	18.9132	145.712	64.1619	164.022	77.0738	207.135	26.313	188.85	-5.16425	167.79	75.4602	347.726
504753	13.9692	186.448	34.5513	191.359	19.0216	145.926	64.2296	164.525	76.9606	208.023	26.283	189.103	-5.14747	168.019	75.4167	346.83
504754	13.9517	186.684	34.5087	191.633	19.1293	146.14	64.2952	165.031	76.8441	208.895	26.2522	189.357	-5.13101	168.249	75.3701	345.94
504755	13.9336	186.919	34.465	191.906	19.2365	146.355	64.3587	165.54	76.7243	209.75	26.2205	189.61	-5.11487	168.479	75.3206	345.054
504756	13.9149	187.155	34.4204	192.179	19.3431	146.57	64.42	166.051	76.6015	210.59	26.188	189.863	-5.09904	168.708	75.2681	344.175
504757	13.8956	187.39	34.3748	192.451	19.4491	146.785	64.4791	166.565	76.4755	211.413	26.1547	190.116	-5.08352	168.938	75.2127	343.301
504758	13.8756	187.625	34.3282	192.723	19.5544	147.001	64.536	167.081	76.3466	212.221	26.1205	190.368	-5.06832	169.168	75.1545	342.434
504759	13.8551	187.861	34.2806	192.995	19.6592	147.218	64.5908	167.6	76.2149	213.012	26.0855	190.621	-5.05344	169.398	75.0934	341.573
504760	13.8339	188.096	34.232	193.266	19.7633	147.435	64.6433	168.12	76.0803	213.788	26.0497	190.873	-5.03887	169.627	75.0295	340.718
504761	13.8121	188.331	34.1824	193.537	19.8668	147.653	64.6936	168.643	75.943	214.548	26.013	191.125	-5.02461	169.857	74.9628	339.871
504762	13.7896	188.566	34.1318	193.807	19.9697	147.871	64.7417	169.168	75.803	215.292	25.9755	191.376	-5.01068	170.087	74.8933	339.03
504763	13.7666	188.801	34.0803	194.077	20.072	148.089	64.7875	169.696	75.6605	216.021	25.9372	191.628	-4.99705	170.317	74.8212	338.197
504764	13.7429	189.036	34.0278	194.346	20.1737	148.308	64.831	170.225	75.5155	216.735	25.898	191.879	-4.98375	170.547	74.7464	337.371
504765	13.7187	189.27	33.9743	194.615	20.2747	148.528	64.8723	170.756	75.3681	217.434	25.858	192.13	-4.97077	170.776	74.669	336.552
504766	13.6937	189.505	33.9198	194.884	20.3751	148.747	64.9112	171.288	75.2183	218.118	25.8172	192.381	-4.9581	171.006	74.5891	335.741
504767	13.6682	189.74	33.8644	195.152	20.4748	148.968	64.9479	171.822	75.0663	218.788	25.7756	192.631	-4.94574	171.236	74.5065	334.938
504768	13.6421	189.974	33.808	195.42	20.574	149.189	64.9823	172.358	74.912	219.443	25.7332	192.882	-4.93371	171.466	74.4215	334.143
504769	13.6154	190.208	33.7507	195.687	20.6725	149.41	65.0143	172.895	74.7557	220.084	25.6899	193.132	-4.92199	171.696	74.334	333.356
504770	13.588	190.443	33.6924	195.953	20.7703	149.632	65.044	173.434	74.5972	220.712	25.6459	193.381	-4.9106	171.926	74.2441	332.577
504771	13.56	190.677	33.6331	196.22	20.8675	149.854	65.0714	173.974	74.4368	221.326	25.601	193.631	-4.89952	172.156	74.1518	331.805
504772	13.5314	190.911	33.5729	196.485	20.9641	150.077	65.0965	174.515	74.2744	221.926	25.5553	193.88	-4.88876	172.386	74.0572	331.043
504773	13.5023	191.145	33.5117	196.751	21.06	150.3	65.1192	175.058	74.1101	222.514	25.5088	194.129	-4.87831	172.616	73.9603	330.288
504774	13.4725	191.379	33.4496	197.015	21.1552	150.524	65.1395	175.601	73.944	223.088	25.4615	194.377	-4.86819	172.845	73.8612	329.542
504775	13.442	191.613	33.3865	197.28	21.2498	150.748	65.1575	176.145	73.7761	223.65	25.4133	194.626	-4.85839	173.076	73.7598	328.804
504776	13.411	191.846	33.3225	197.543	21.3437	150.972	65.1731	176.69	73.6065	224.2	25.3644	194.874	-4.8489	173.305	73.6563	328.075
504777	13.3794	192.08	33.2576	197.806	21.437	151.197	65.1863	177.235	73.4352	224.738	25.3147	195.121	-4.83974	173.535	73.5506	327.353
504778	13.3471	192.313	33.1917	198.069	21.5296	151.423	65.1971	177.781	73.2623	225.264	25.2641	195.369	-4.83089	173.765	73.4429	326.641
504779	13.3143	192.546	33.1249	198.331	21.6215	151.649	65.2056	178.327	73.0879	225.778	25.2128	195.616	-4.82236	173.995	73.3331	325.936
504780	13.2808	192.78	33.0572	198.593	21.7128	151.875	65.2117	178.874	72.912	226.281	25.1607	195.863	-4.81416	174.225	73.2213	325.24
504781	13.2468	193.012	32.9885	198.853	21.8034	152.102	65.2154	179.421	72.7346	226.774	25.1078	196.109	-4.80627	174.455	73.1076	324.553
504782	13.2121	193.245	32.9189	199.114	21.8933	152.329	65.2167	179.968	72.5557	227.255	25.054	196.355	-4.7987	174.685	72.9919	323.874
504783	13.1768	193.478	32.8484	199.374	21.9825	152.557	65.2156	180.515	72.3755	227.726	24.9995	196.601	-4.79146	174.916	72.8744	323.203
504784	13.141	193.711	32.777	199.633	22.0711	152.785	65.2122	181.062	72.194	228.186	24.9442	196.847	-4.78453	175.145	72.755	322.54
504785	13.1045	193.943	32.7047	199.892	22.159	153.014	65.2064	181.609	72.0111	228.637	24.8881	197.092	-4.77793	175.376	72.6338	321.885
504786	13.0674	194.176	32.6315	200.15	22.2462	153.243	65.1981	182.155	71.827	229.077	24.8313	197.337	-4.77165	175.606	72.5108	321.239
504787	13.0297	194.408	32.5574	200.408	22.3327	153.472	65.1875	182.702	71.6417	229.508	24.7736	197.581	-4.76568	175.836	72.3861	320.601
504788	12.9915	194.64	32.4823	200.665	22.4185	153.702	65.1745	183.247	71.4552	229.93	24.7152	197.826	-4.76004	176.066	72.2597	319.971
504789	12.9526	194.872	32.4064	200.921	22.5036	153.933	65.1592	183.792	71.2675	230.343	24.656	198.069	-4.75472	176.296	72.1317	319.348
504790	12.9131	195.104	32.3296	201.177	22.588	154.164	65.1415	184.336	71.0788	230.746	24.596	198.313	-4.74972	176.526	72.002	318.734
504791	12.8731	195.335	32.2519	201.432	22.6717	154.395	65.1214	184.879	70.8889	231.141	24.5352	198.556	-4.74504	176.756	71.8708	318.127
504792	12.8324	195.567	32.1733	201.687	22.7547	154.627	65.0989	185.422	70.698	231.528	24.4737	198.799	-4.74068	176.986	71.7379	317.529
504793	12.7912	195.798	32.0938	201.941	22.837	154.859	65.0741	185.963	70.5061	231.906	24.4113	199.041	-4.73664	177.216	71.6036	316.937
504794	12.7493	196.029	32.0135	202.194	22.9186	155.092	65.047	186.503	70.3133	232.276	24.3483	199.283	-4.73293	177.446	71.4678	316.354
504795	12.7069	196.26	31.9322	202.447	22.9995	155.325	65.0175	187.042	70.1194	232.638	24.2844	199.525	-4.72953	177.676	71.3306	315.778
504796	12.6639	196.491	31.8501	202.699	23.0797	155.558	64.9857	187.579	69.9246	232.992	24.2198	199.767	-4.72646	177.906	71.1919	315.209
504797	12.6203	196.722	31.7672	202.951	23.1591	155.792	64.9516	188.115	69.729	233.339	24.1545	200.007	-4.72371	178.137	71.0519	314.648
504798	12.5761	196.953	31.6833	203.202	23.2379	156.027	64.9151	188.649	69.5324	233.679	24.0883	200.248	-4.72128	178.367	70.9105	314.094
504799	12.5313	197.183	31.5986	203.452	23.3159	156.261	64.8764	189.182	69.3351	234.011	24.0215	200.488	-4.71917	178.597	70.7678	313.547
504800	12.4859	197.413	31.5131	203.702	23.3931	156.497	64.8354	189.713	69.1368	234.337	23.9538	200.728	-4.71739	178.827	70.6238	313.007
504801	12.4399	197.643	31.4267	203.951	23.4697	156.732	64.7921	190.243	68.9378	234.655	23.8854	200.968	-4.71593	179.057	70.4785	312.474
504802	12.3934	197.873	31.3395	204.199	23.5455	156.968	64.7465	190.77	68.738	234.967	23.8163	201.207	-4.71478	179.287	70.332	311.948
504803	12.3463	198.103	31.2514	204.447	23.6207	157.205	64.6987	191.295	68.5375	235.272	23.7464	201.445	-4.71396	179.517	70.1843	311.428
504804	12.2986	198.333	31.1624	204.694	23.695	157.441	64.6486	191.818	68.3362	235.571	23.6758	201.684	-4.71346	179.747	70.0354	310.916
504805	12.2503	198.562	31.0727	204.941	23.7686	157.679	64.5963	192.339	68.1342	235.864	23.6044	201.922	-4.71329	179.977	69.8853	310.41
504806	12.2014	198.792	30.9821	205.187	23.8415	157.917	64.5418	192.858	67.9315	236.151	23.5323	202.159	-4.71343	180.208	69.7341	309.91
504807	12.152	199.021	30.8906	205.432	23.9137	158.155	64.4851	193.375	67.7281	236.432	23.4595	202.396	-4.7139	180.438	69.5819	309.417
504808	12.102	199.25	30.7984	205.677	23.9851	158.393	64.4262	193.889	67.5241	236.707	23.3859	202.633	-4.71469	180.668	69.4285	308.93
504809	12.0514	199.478	30.7053	205.92	24.0557	158.632	64.3651	194.4	67.3195	236.977	23.3116	202.869	-4.7158	180.898	69.2741	308.449
504810	12.0002	199.707	30.6114	206.164	24.1256	158.871	64.3019	194.909	67.1142	237.241	23.2365	203.105	-4.71723	181.128	69.1187	307.974
504811	11.9485	199.935	30.5167	206.406	24.1948	159.111	64.2365	195.416	66.9083	237.5	23.1607	203.341	-4.71898	181.358	68.9623	307.505
504812	11.8961	200.163	30.4212	206.648	24.2632	159.351	64.169	195.919	66.7018	237.753	23.0842	203.576	-4.72106	181.588	68.8049	307.042
504813	11.8433	200.392	30.3248	206.889	24.3308	159.591	64.0994	196.42	66.4948	238.001	23.007	203.81	-4.72346	181.818	68.6465	306.585
504814	11.7898	200.619	30.2277	207.13	24.3977	159.832	64.0278	196.918	66.2872	238.245	22.9291	204.045	-4.72618	182.048	68.4872	306.133
504815	11.7358	200.847	30.1298	207.37	24.4638	160.073	63.954	197.413	66.079	238.483	22.8504	204.279	-4.72922	182.279	68.327	305.687
504816	11.6812	201.075	30.0311	207.609	24.5292	160.315	63.8782	197.906	65.8704	238.717	22.7711	204.512	-4.73258	182.509	68.1659	305.247
504817	11.6261	201.302	29.9316	207.848	24.5938	160.557	63.8004	198.395	65.6612	238.946	22.691	204.745	-4.73626	182.739	68.0039	304.812
504818	11.5703	201.529	29.8313	208.085	24.6576	160.799	63.7205	198.881	65.4515	239.171	22.6102	204.978	-4.74027	182.969	67.8411	304.382
504819	11.5141	201.756	29.7302	208.323	24.7206	161.042	63.6386	199.364	65.2414	239.391	22.5287	205.21	-4.74459	183.199	67.6774	303.958
504820	11.4572	201.983	29.6283	208.559	24.7829	161.285	63.5548	199.844	65.0307	239.607	22.4465	205.441	-4.74924	183.429	67.5129	303.538
504821	11.3998	202.209	29.5257	208.795	24.8444	161.528	63.469	200.321	64.8196	239.818	22.3636	205.673	-4.75421	183.659	67.3477	303.124
504822	11.3419	202.435	29.4223	209.03	24.9051	161.772	63.3812	200.795	64.6081	240.025	22.28	205.904	-4.7595	183.889	67.1816	302.715
504823	11.2834	202.662	29.3181	209.265	24.9651	162.016	63.2916	201.265	64.3961	240.229	22.1957	206.134	-4.76511	184.119	67.0148	302.31
504824	11.2243	202.888	29.2132	209.498	25.0242	162.261	63.2	201.732	64.1837	240.428	22.1108	206.364	-4.77104	184.349	66.8473	301.911
504825	11.1647	203.113	29.1075	209.731	25.0826	162.506	63.1065	202.196	63.9709	240.624	22.0251	206.594	-4.77729	184.579	66.679	301.516
504826	11.1045	203.339	29.0011	209.964	25.1402	162.751	63.0112	202.656	63.7576	240.815	21.9387	206.823	-4.78387	184.81	66.51	301.125
504827	11.0438	203.564	28.8939	210.196	25.197	162.996	62.914	203.113	63.544	241.003	21.8517	207.051	-4.79076	185.04	66.3403	300.74
504828	10.9825	203.789	28.786	210.427	25.253	163.242	62.815	203.567	63.33	241.188	21.764	207.28	-4.79798	185.27	66.17	300.358
504829	10.9207	204.014	28.6773	210.657	25.3082	163.488	62.7142	204.017	63.1156	241.368	21.6755	207.507	-4.80551	185.5	65.9989	299.981
504830	10.8583	204.239	28.5679	210.886	25.3626	163.735	62.6116	204.464	62.9009	241.546	21.5864	207.735	-4.81337	185.73	65.8273	299.609
504831	10.7954	204.464	28.4577	211.115	25.4163	163.982	62.5072	204.907	62.6858	241.72	21.4967	207.962	-4.82154	185.96	65.655	299.24
504832	10.7319	204.688	28.3468	211.344	25.4691	164.229	62.4011	205.347	62.4703	241.89	21.4063	208.188	-4.83004	186.19	65.4821	298.876
504833	10.6679	204.912	28.2352	211.571	25.5211	164.476	62.2933	205.783	62.2545	242.058	21.3152	208.414	-4.83885	186.42	65.3086	298.516
504834	10.6034	205.136	28.1229	211.798	25.5723	164.724	62.1838	206.215	62.0384	242.222	21.2234	208.64	-4.84799	186.65	65.1345	298.16
504835	10.5383	205.36	28.0098	212.024	25.6227	164.972	62.0725	206.644	61.8219	242.383	21.131	208.865	-4.85744	186.88	64.9598	297.808
504836	10.4727	205.583	27.8961	212.25	25.6723	165.22	61.9597	207.07	61.6052	242.541	21.0379	209.089	-4.86721	187.109	64.7845	297.459
504837	10.4066	205.806	27.7816	212.474	25.7211	165.469	61.8451	207.492	61.3881	242.696	20.9441	209.314	-4.8773	187.339	64.6087	297.115
504838	10.3399	206.03	27.6664	212.698	25.7691	165.718	61.729	207.91	61.1707	242.848	20.8497	209.537	-4.88772	187.569	64.4324	296.774
504839	10.2727	206.252	27.5505	212.922	25.8163	165.967	61.6112	208.325	60.953	242.997	20.7547	209.761	-4.89844	187.799	64.2555	296.437
504840	10.2049	206.475	27.434	213.144	25.8626	166.217	61.4919	208.736	60.7351	243.144	20.659	209.983	-4.90949	188.029	64.0781	296.103
504841	10.1366	206.697	27.3167	213.366	25.9082	166.467	61.371	209.143	60.5169	243.287	20.5626	210.206	-4.92086	188.259	63.9002	295.773
504842	10.0678	206.92	27.1987	213.587	25.9529	166.717	61.2485	209.547	60.2983	243.429	20.4656	210.428	-4.93254	188.489	63.7219	295.446
504843	9.99845	207.142	27.0801	213.808	25.9968	166.967	61.1245	209.947	60.0796	243.567	20.368	210.649	-4.94455	188.719	63.543	295.123
504844	9.92858	207.363	26.9607	214.028	26.0399	167.218	60.999	210.344	59.8605	243.703	20.2697	210.87	-4.95687	188.949	63.3637	294.803
504845	9.85819	207.585	26.8407	214.247	26.0821	167.469	60.8721	210.737	59.6412	243.836	20.1708	211.09	-4.96951	189.179	63.1839	294.487
504846	9.78728	207.806	26.72	214.465	26.1236	167.72	60.7436	211.127	59.4217	243.967	20.0713	211.31	-4.98246	189.409	63.0036	294.173
504847	9.71584	208.028	26.5987	214.683	26.1642	167.972	60.6137	211.513	59.2019	244.095	19.9711	211.53	-4.99573	189.638	62.8229	293.863
504848	9.64389	208.248	26.4766	214.9	26.2039	168.223	60.4824	211.895	58.9819	244.221	19.8703	211.749	-5.00932	189.868	62.6418	293.556
504849	9.57142	208.469	26.3539	215.117	26.2429	168.475	60.3497	212.274	58.7617	244.345	19.7689	211.968	-5.02323	190.098	62.4603	293.252
504850	9.49843	208.69	26.2306	215.332	26.281	168.727	60.2156	212.649	58.5412	244.466	19.6669	212.186	-5.03745	190.328	62.2784	292.951
504851	9.42492	208.91	26.1066	215.547	26.3183	168.98	60.0801	213.021	58.3205	244.585	19.5642	212.404	-5.05199	190.558	62.096	292.653
504852	9.35091	209.13	25.9819	215.761	26.3547	169.232	59.9432	213.389	58.0996	244.702	19.4609	212.621	-5.06684	190.787	61.9132	292.358
504853	9.27638	209.35	25.8566	215.975	26.3903	169.485	59.8051	213.754	57.8785	244.817	19.3571	212.838	-5.08201	191.017	61.7301	292.065
504854	9.20134	209.569	25.7307	216.188	26.4251	169.738	59.6656	214.115	57.6571	244.93	19.2525	213.054	-5.0975	191.247	61.5466	291.776
504855	9.1258	209.788	25.6041	216.4	26.4591	169.992	59.5248	214.473	57.4356	245.04	19.1474	213.27	-5.1133	191.476	61.3627	291.489
504856	9.04975	210.008	25.4768	216.611	26.4921	170.245	59.3827	214.827	57.2139	245.149	19.0417	213.485	-5.12941	191.706	61.1785	291.205
504857	8.97319	210.226	25.349	216.822	26.5244	170.499	59.2394	215.178	56.992	245.255	18.9354	213.7	-5.14584	191.936	60.9939	290.923
504858	8.89613	210.445	25.2205	217.032	26.5558	170.753	59.0948	215.525	56.7698	245.36	18.8285	213.915	-5.16259	192.165	60.809	290.644
504859	8.81857	210.663	25.0914	217.242	26.5864	171.007	58.949	215.869	56.5476	245.463	18.721	214.129	-5.17965	192.395	60.6237	290.368
504860	8.74051	210.882	24.9617	217.45	26.6161	171.261	58.802	216.21	56.3251	245.563	18.6129	214.342	-5.19702	192.625	60.4381	290.094
504861	8.66195	211.1	24.8313	217.659	26.645	171.516	58.6538	216.547	56.1024	245.662	18.5042	214.555	-5.2147	192.854	60.2521	289.823
504862	8.58289	211.317	24.7003	217.866	26.673	171.771	58.5044	216.881	55.8796	245.759	18.3949	214.768	-5.2327	193.084	60.0659	289.554
504863	8.50334	211.535	24.5688	218.072	26.7002	172.025	58.3539	217.211	55.6566	245.854	18.2851	214.98	-5.25101	193.313	59.8793	289.287
504864	8.42329	211.752	24.4366	218.278	26.7265	172.281	58.2022	217.538	55.4335	245.948	18.1746	215.191	-5.26964	193.543	59.6925	289.023
504865	8.34276	211.969	24.3038	218.484	26.752	172.536	58.0494	217.862	55.2101	246.04	18.0636	215.403	-5.28857	193.773	59.5053	288.761
504866	8.26173	212.186	24.1704	218.688	26.7766	172.791	57.8955	218.183	54.9867	246.13	17.952	215.613	-5.30782	194.002	59.3179	288.502
504867	8.18022	212.403	24.0364	218.892	26.8003	173.047	57.7405	218.5	54.763	246.218	17.8398	215.823	-5.32737	194.232	59.1301	288.244
504868	8.09822	212.619	23.9019	219.095	26.8233	173.302	57.5844	218.814	54.5393	246.305	17.7271	216.033	-5.34724	194.461	58.9421	287.989
504869	8.01573	212.835	23.7667	219.298	26.8453	173.558	57.4273	219.125	54.3153	246.39	17.6138	216.242	-5.36742	194.69	58.7538	287.736
504870	7.93276	213.051	23.631	219.5	26.8665	173.814	57.2691	219.433	54.0913	246.474	17.4999	216.451	-5.38791	194.92	58.5653	287.485
504871	7.84931	213.267	23.4947	219.701	26.8869	174.07	57.1099	219.738	53.8671	246.555	17.3855	216.66	-5.40871	195.149	58.3765	287.236
504872	7.76538	213.482	23.3578	219.902	26.9063	174.327	56.9496	220.039	53.6427	246.636	17.2705	216.867	-5.42983	195.379	58.1874	286.989
504873	7.68097	213.697	23.2203	220.101	26.925	174.583	56.7884	220.338	53.4182	246.715	17.1549	217.075	-5.45125	195.608	57.9981	286.744
504874	7.59609	213.912	23.0823	220.301	26.9427	174.839	56.6262	220.633	53.1936	246.792	17.0388	217.282	-5.47297	195.837	57.8086	286.501
504875	7.51072	214.127	22.9437	220.499	26.9596	175.096	56.463	220.925	52.9689	246.869	16.9221	217.488	-5.49501	196.067	57.6188	286.26
504876	7.42489	214.341	22.8045	220.697	26.9757	175.353	56.2988	221.214	52.744	246.943	16.8049	217.694	-5.51736	196.296	57.4288	286.021
504877	7.33859	214.556	22.6648	220.894	26.9909	175.609	56.1337	221.501	52.519	247.016	16.6872	217.9	-5.54001	196.525	57.2385	285.783
504878	7.25181	214.77	22.5245	221.091	27.0052	175.866	55.9677	221.784	52.2939	247.088	16.5689	218.105	-5.56297	196.755	57.0481	285.548
504879	7.16457	214.984	22.3836	221.286	27.0187	176.123	55.8007	222.064	52.0687	247.159	16.45	218.309	-5.58624	196.984	56.8574	285.314
504880	7.07686	215.197	22.2423	221.482	27.0313	176.38	55.6329	222.342	51.8433	247.228	16.3307	218.513	-5.60981	197.213	56.6665	285.082
504881	6.98869	215.41	22.1003	221.676	27.043	176.637	55.4641	222.616	51.6178	247.295	16.2108	218.717	-5.63369	197.442	56.4754	284.852
504882	6.90006	215.624	21.9579	221.87	27.0539	176.895	55.2945	222.888	51.3923	247.362	16.0903	218.92	-5.65787	197.671	56.2841	284.624
504883	6.81096	215.836	21.8149	222.063	27.0639	177.152	55.124	223.157	51.1666	247.427	15.9693	219.123	-5.68237	197.9	56.0926	284.397
504884	6.72141	216.049	21.6713	222.256	27.073	177.409	54.9527	223.423	50.9408	247.491	15.8478	219.325	-5.70716	198.13	55.9009	284.172
504885	6.6314	216.261	21.5272	222.448	27.0813	177.667	54.7805	223.686	50.7149	247.554	15.7258	219.527	-5.73226	198.359	55.709	283.949
504886	6.54093	216.474	21.3827	222.639	27.0887	177.924	54.6076	223.947	50.4889	247.615	15.6033	219.728	-5.75767	198.588	55.5169	283.727
504887	6.45001	216.685	21.2375	222.83	27.0952	178.182	54.4338	224.205	50.2628	247.676	15.4802	219.929	-5.78338	198.817	55.3247	283.506
504888	6.35863	216.897	21.0919	223.02	27.1009	178.439	54.2591	224.46	50.0367	247.735	15.3566	220.13	-5.80939	199.046	55.1323	283.288
504889	6.26681	217.108	20.9457	223.209	27.1057	178.697	54.0838	224.712	49.8104	247.793	15.2325	220.329	-5.8357	199.275	54.9397	283.07
504890	6.17454	217.32	20.7991	223.398	27.1096	178.954	53.9076	224.962	49.584	247.85	15.1079	220.529	-5.86232	199.504	54.7469	282.854
504891	6.08182	217.531	20.6519	223.586	27.1127	179.212	53.7306	225.209	49.3575	247.905	14.9828	220.728	-5.88924	199.733	54.5539	282.64
504892	5.98865	217.741	20.5042	223.773	27.1149	179.47	53.5529	225.454	49.131	247.96	14.8572	220.927	-5.91646	199.962	54.3608	282.427
504893	5.89505	217.952	20.356	223.96	27.1162	179.727	53.3745	225.696	48.9044	248.013	14.7311	221.125	-5.94398	200.191	54.1676	282.216
504894	5.801	218.162	20.2073	224.146	27.1167	179.985	53.1953	225.935	48.6776	248.066	14.6044	221.322	-5.9718	200.42	53.9742	282.006
504895	5.70651	218.372	20.0581	224.332	27.1163	180.243	53.0154	226.172	48.4508	248.117	14.4773	221.519	-5.99992	200.649	53.7806	281.797
504896	5.61158	218.582	19.9084	224.516	27.1151	180.5	52.8348	226.406	48.2239	248.167	14.3497	221.716	-6.02834	200.877	53.5869	281.59
504897	5.51621	218.792	19.7582	224.701	27.1129	180.758	52.6535	226.638	47.997	248.217	14.2216	221.912	-6.05706	201.106	53.3931	281.384
504898	5.42042	219.001	19.6075	224.884	27.1099	181.016	52.4715	226.868	47.7699	248.265	14.093	222.108	-6.08608	201.335	53.1991	281.179
504899	5.32418	219.21	19.4564	225.067	27.106	181.273	52.2888	227.095	47.5428	248.312	13.9639	222.304	-6.11539	201.564	53.0049	280.976
504900	5.22752	219.419	19.3047	225.25	27.1013	181.531	52.1055	227.32	47.3156	248.358	13.8344	222.499	-6.14501	201.792	52.8107	280.774
504901	5.13043	219.627	19.1526	225.431	27.0957	181.788	51.9215	227.542	47.0884	248.404	13.7043	222.693	-6.17492	202.021	52.6163	280.573
504902	5.03291	219.836	19	225.613	27.0892	182.046	51.7368	227.762	46.861	248.448	13.5738	222.887	-6.20512	202.25	52.4218	280.373
504903	4.93497	220.044	18.847	225.793	27.0819	182.303	51.5515	227.98	46.6336	248.491	13.4428	223.081	-6.23562	202.478	52.2271	280.175
504904	4.8366	220.252	18.6934	225.973	27.0737	182.561	51.3655	228.196	46.4061	248.534	13.3113	223.274	-6.26642	202.707	52.0324	279.978
504905	4.7378	220.46	18.5394	226.152	27.0646	182.818	51.179	228.409	46.1786	248.575	13.1794	223.467	-6.29752	202.936	51.8375	279.782
504906	4.63859	220.667	18.385	226.331	27.0547	183.075	50.9918	228.62	45.951	248.616	13.047	223.659	-6.3289	203.164	51.6425	279.587
504907	4.53896	220.874	18.2301	226.509	27.0439	183.333	50.804	228.828	45.7234	248.656	12.9141	223.851	-6.36059	203.393	51.4474	279.393
504908	4.43891	221.081	18.0747	226.687	27.0322	183.59	50.6157	229.035	45.4956	248.695	12.7808	224.042	-6.39256	203.621	51.2522	279.2
504909	4.33845	221.288	17.9189	226.864	27.0197	183.847	50.4267	229.239	45.2679	248.732	12.647	224.233	-6.42483	203.85	51.0568	279.009
504910	4.23757	221.495	17.7626	227.04	27.0063	184.104	50.2371	229.442	45.04	248.77	12.5127	224.424	-6.45739	204.078	50.8614	278.818
504911	4.13629	221.701	17.6059	227.216	26.9921	184.361	50.047	229.642	44.8121	248.806	12.378	224.614	-6.49024	204.307	50.6659	278.628
504912	4.03459	221.907	17.4487	227.391	26.9769	184.618	49.8563	229.84	44.5842	248.841	12.2428	224.803	-6.52338	204.535	50.4703	278.44
504913	3.93248	222.113	17.2911	227.565	26.961	184.874	49.6651	230.036	44.3562	248.876	12.1072	224.993	-6.55682	204.763	50.2745	278.253
504914	3.82997	222.318	17.133	227.739	26.9441	185.131	49.4734	230.23	44.1281	248.91	11.9711	225.181	-6.59054	204.992	50.0787	278.066
504915	3.72705	222.524	16.9745	227.913	26.9264	185.387	49.281	230.422	43.9	248.942	11.8346	225.37	-6.62455	205.22	49.8828	277.881
504916	3.62373	222.729	16.8156	228.085	26.9079	185.644	49.0882	230.612	43.6718	248.975	11.6977	225.558	-6.65885	205.448	49.6868	277.696
504917	3.52001	222.934	16.6563	228.258	26.8885	185.9	48.8948	230.799	43.4436	249.006	11.5603	225.745	-6.69344	205.677	49.4908	277.513
504918	3.41589	223.139	16.4965	228.429	26.8682	186.156	48.7009	230.986	43.2154	249.037	11.4224	225.932	-6.72832	205.905	49.2946	277.33
504919	3.31138	223.343	16.3363	228.601	26.847	186.412	48.5066	231.169	42.9871	249.066	11.2842	226.119	-6.76348	206.133	49.0984	277.149
504920	3.20646	223.547	16.1756	228.771	26.8251	186.668	48.3117	231.352	42.7587	249.095	11.1455	226.305	-6.79893	206.361	48.9021	276.968
504921	3.10116	223.751	16.0146	228.941	26.8022	186.923	48.1163	231.532	42.5303	249.124	11.0063	226.491	-6.83467	206.589	48.7057	276.788
504922	2.99546	223.955	15.8531	229.11	26.7785	187.179	47.9204	231.71	42.3019	249.151	10.8668	226.676	-6.87069	206.817	48.5092	276.609
504923	2.88937	224.159	15.6913	229.279	26.754	187.434	47.7241	231.887	42.0734	249.178	10.7268	226.861	-6.907	207.046	48.3127	276.431
504924	2.78289	224.362	15.529	229.447	26.7286	187.69	47.5273	232.061	41.8449	249.204	10.5864	227.045	-6.94359	207.274	48.1161	276.254
504925	2.67603	224.565	15.3663	229.615	26.7023	187.945	47.33	232.234	41.6164	249.23	10.4455	227.229	-6.98046	207.502	47.9194	276.077
504926	2.56877	224.768	15.2032	229.782	26.6752	188.2	47.1322	232.405	41.3878	249.254	10.3043	227.413	-7.01762	207.73	47.7227	275.902
504927	2.46114	224.971	15.0397	229.949	26.6472	188.454	46.934	232.575	41.1591	249.278	10.1626	227.596	-7.05506	207.958	47.5259	275.727
504928	2.35313	225.173	14.8758	230.115	26.6184	188.709	46.7354	232.742	40.9305	249.302	10.0205	227.779	-7.09278	208.186	47.329	275.553
504929	2.24473	225.376	14.7115	230.28	26.5888	188.963	46.5363	232.908	40.7018	249.324	9.87803	227.962	-7.13078	208.413	47.1321	275.38
504930	2.13596	225.578	14.5468	230.445	26.5583	189.217	46.3368	233.072	40.4731	249.346	9.73513	228.144	-7.16906	208.641	46.9351	275.208
504931	2.02681	225.78	14.3817	230.61	26.527	189.471	46.1368	233.234	40.2443	249.367	9.59182	228.325	-7.20763	208.869	46.7381	275.036
504932	1.91728	225.981	14.2163	230.774	26.4948	189.725	45.9365	233.395	40.0155	249.388	9.44811	228.506	-7.24647	209.097	46.541	274.865
504933	1.80739	226.183	14.0504	230.937	26.4617	189.979	45.7357	233.554	39.7867	249.408	9.30399	228.687	-7.28559	209.325	46.3439	274.695
504934	1.69712	226.384	13.8842	231.1	26.4279	190.232	45.5345	233.712	39.5578	249.427	9.15947	228.868	-7.32498	209.553	46.1467	274.526
504935	1.58648	226.585	13.7175	231.262	26.3932	190.485	45.3329	233.867	39.3289	249.446	9.01456	229.048	-7.36466	209.78	45.9495	274.357
504936	1.47548	226.786	13.5506	231.424	26.3576	190.738	45.1309	234.022	39.1	249.464	8.86925	229.227	-7.40461	210.008	45.7522	274.19
504937	1.36411	226.986	13.3832	231.585	26.3213	190.991	44.9285	234.174	38.8711	249.481	8.72355	229.407	-7.44484	210.236	45.5549	274.022
504938	1.25238	227.186	13.2154	231.746	26.284	191.243	44.7257	234.325	38.6421	249.498	8.57746	229.585	-7.48534	210.464	45.3576	273.856
504939	1.14028	227.387	13.0473	231.906	26.246	191.495	44.5226	234.475	38.4131	249.514	8.43098	229.764	-7.52611	210.691	45.1602	273.69
504940	1.02782	227.586	12.8788	232.065	26.2071	191.747	44.319	234.623	38.1841	249.53	8.28411	229.942	-7.56716	210.919	44.9628	273.525
504941	0.915005	227.786	12.71	232.225	26.1674	191.999	44.1151	234.769	37.9551	249.545	8.13686	230.119	-7.60848	211.146	44.7653	273.36
504942	0.801833	227.986	12.5408	232.383	26.1269	192.25	43.9109	234.914	37.726	249.559	7.98923	230.297	-7.65008	211.374	44.5678	273.196
504943	0.688304	228.185	12.3712	232.541	26.0855	192.502	43.7062	235.058	37.497	249.573	7.84122	230.474	-7.69195	211.601	44.3703	273.033
504944	0.574423	228.384	12.2013	232.699	26.0433	192.752	43.5012	235.2	37.2679	249.586	7.69283	230.65	-7.73408	211.829	44.1728	272.87
504945	0.460189	228.583	12.031	232.856	26.0003	193.003	43.2959	235.34	37.0388	249.599	7.54407	230.826	-7.77649	212.056	43.9752	272.708
504946	0.345606	228.781	11.8603	233.013	25.9565	193.254	43.0902	235.479	36.8096	249.611	7.39493	231.002	-7.81917	212.284	43.7776	272.547
504947	0.230674	228.98	11.6893	233.169	25.9118	193.504	42.8842	235.617	36.5805	249.622	7.24543	231.177	-7.86212	212.511	43.5799	272.386
504948	0.115395	229.178	11.518	233.324	25.8663	193.754	42.6778	235.753	36.3513	249.633	7.09555	231.352	-7.90533	212.739	43.3823	272.225
504949	-0.000228077	229.376	11.3463	233.48	25.82	194.003	42.4711	235.888	36.1221	249.643	6.94531	231.527	-7.94881	212.966	43.1846	272.066
504950	-0.116195	229.574	11.1743	233.634	25.7729	194.252	42.2641	236.022	35.8929	249.653	6.79471	231.701	-7.99256	213.193	42.9869	271.906
504951	-0.232503	229.772	11.0019	233.788	25.725	194.501	42.0567	236.154	35.6637	249.662	6.64374	231.875	-8.03657	213.421	42.7892	271.748
504952	-0.34915	229.969	10.8292	233.942	25.6763	194.75	41.849	236.285	35.4345	249.671	6.49242	232.048	-8.08085	213.648	42.5915	271.59
504953	-0.466136	230.167	10.6561	234.095	25.6268	194.999	41.641	236.414	35.2052	249.679	6.34074	232.221	-8.1254	213.875	42.3937	271.432
504954	-0.583457	230.363	10.4828	234.248	25.5764	195.247	41.4327	236.542	34.976	249.687	6.1887	232.394	-8.17021	214.102	42.196	271.275
504955	-0.701114	230.56	10.309	234.4	25.5252	195.494	41.2241	236.669	34.7467	249.694	6.03631	232.566	-8.21528	214.329	41.9982	271.119
504956	-0.819103	230.757	10.135	234.552	25.4733	195.742	41.0152	236.795	34.5175	249.701	5.88357	232.738	-8.26061	214.557	41.8004	270.963
504957	-0.937423	230.954	9.96062	234.703	25.4205	195.989	40.806	236.919	34.2882	249.707	5.73048	232.91	-8.30621	214.784	41.6026	270.807
504958	-1.05607	231.15	9.78591	234.854	25.367	196.236	40.5965	237.042	34.0589	249.713	5.57704	233.081	-8.35206	215.011	41.4048	270.652
504959	-1.17505	231.346	9.61089	235.004	25.3126	196.483	40.3867	237.164	33.8296	249.718	5.42326	233.252	-8.39818	215.238	41.207	270.498
504960	-1.29435	231.542	9.43554	235.154	25.2575	196.729	40.1767	237.285	33.6003	249.722	5.26914	233.423	-8.44456	215.465	41.0092	270.344
504961	-1.41398	231.738	9.25988	235.304	25.2015	196.975	39.9663	237.404	33.371	249.726	5.11467	233.593	-8.49119	215.692	40.8114	270.19
504962	-1.53393	231.933	9.0839	235.452	25.1448	197.22	39.7557	237.522	33.1417	249.73	4.95987	233.763	-8.53808	215.919	40.6136	270.037
504963	-1.6542	232.128	8.9076	235.601	25.0873	197.465	39.5447	237.639	32.9123	249.733	4.80473	233.932	-8.58523	216.146	40.4158	269.885
504964	-1.77479	232.324	8.73099	235.749	25.029	197.71	39.3336	237.755	32.683	249.735	4.64926	234.102	-8.63264	216.373	40.218	269.733
504965	-1.8957	232.519	8.55407	235.897	24.9699	197.955	39.1221	237.87	32.4537	249.738	4.49345	234.27	-8.6803	216.6	40.0201	269.581
504966	-2.01692	232.713	8.37684	236.044	24.91	198.199	38.9104	237.983	32.2244	249.739	4.33732	234.439	-8.72821	216.827	39.8223	269.429
504967	-2.13846	232.908	8.19931	236.19	24.8493	198.443	38.6984	238.095	31.995	249.74	4.18086	234.607	-8.77638	217.054	39.6245	269.279
504968	-2.26031	233.102	8.02147	236.337	24.7879	198.686	38.4862	238.207	31.7657	249.741	4.02407	234.775	-8.82481	217.28	39.4267	269.128
504969	-2.38247	233.297	7.84333	236.483	24.7257	198.929	38.2737	238.317	31.5364	249.741	3.86695	234.942	-8.87348	217.507	39.2289	268.978
504970	-2.50494	233.491	7.66489	236.628	24.6627	199.172	38.0609	238.426	31.307	249.741	3.70952	235.109	-8.92241	217.734	39.0312	268.828
504971	-2.62771	233.685	7.48615	236.773	24.5989	199.414	37.8479	238.533	31.0777	249.74	3.55176	235.276	-8.97159	217.961	38.8334	268.679
504972	-2.75079	233.878	7.30711	236.917	24.5344	199.656	37.6347	238.64	30.8484	249.739	3.39368	235.443	-9.02101	218.188	38.6356	268.53
504973	-2.87418	234.072	7.12779	237.061	24.4691	199.898	37.4212	238.746	30.619	249.737	3.23529	235.609	-9.07069	218.414	38.4379	268.382
504974	-2.99787	234.265	6.94816	237.205	24.4031	200.139	37.2075	238.851	30.3897	249.735	3.07659	235.775	-9.12062	218.641	38.2402	268.234
504975	-3.12185	234.458	6.76825	237.348	24.3362	200.38	36.9936	238.954	30.1604	249.733	2.91757	235.94	-9.17079	218.868	38.0425	268.086
504976	-3.24614	234.651	6.58805	237.491	24.2687	200.62	36.7794	239.056	29.931	249.73	2.75824	236.105	-9.22121	219.094	37.8448	267.938
504977	-3.37073	234.844	6.40757	237.634	24.2003	200.86	36.565	239.158	29.7017	249.726	2.59861	236.27	-9.27187	219.321	37.6471	267.791
504978	-3.4956	235.037	6.2268	237.776	24.1312	201.1	36.3504	239.258	29.4724	249.722	2.43866	236.435	-9.32278	219.547	37.4494	267.645
504979	-3.62078	235.23	6.04575	237.917	24.0614	201.339	36.1355	239.358	29.2431	249.718	2.27841	236.599	-9.37394	219.774	37.2518	267.498
504980	-3.74625	235.422	5.86442	238.058	23.9908	201.578	35.9204	239.456	29.0138	249.713	2.11786	236.763	-9.42534	220	37.0542	267.352
504981	-3.872	235.614	5.68281	238.199	23.9195	201.817	35.7051	239.554	28.7845	249.708	1.95701	236.926	-9.47698	220.227	36.8566	267.207
504982	-3.99805	235.806	5.50092	238.339	23.8474	202.055	35.4896	239.65	28.5553	249.702	1.79586	237.089	-9.52886	220.453	36.659	267.061
504983	-4.12438	235.998	5.31876	238.48	23.7745	202.293	35.2739	239.746	28.326	249.696	1.63441	237.252	-9.58099	220.68	36.4615	266.916
504984	-4.251	236.19	5.13633	238.619	23.701	202.53	35.058	239.84	28.0967	249.69	1.47267	237.415	-9.63335	220.906	36.264	266.772
504985	-4.3779	236.381	4.95363	238.758	23.6267	202.767	34.8419	239.934	27.8675	249.683	1.31063	237.577	-9.68595	221.133	36.0665	266.627
504986	-4.50508	236.573	4.77065	238.897	23.5516	203.003	34.6255	240.026	27.6382	249.676	1.14831	237.739	-9.7388	221.359	35.869	266.483
504987	-4.63255	236.764	4.58741	239.035	23.4759	203.239	34.409	240.118	27.409	249.668	0.985689	237.901	-9.79188	221.586	35.6716	266.339
504988	-4.76029	236.955	4.40391	239.173	23.3993	203.475	34.1922	240.209	27.1798	249.66	0.822784	238.063	-9.84519	221.812	35.4742	266.196
504989	-4.88831	237.146	4.22014	239.311	23.3221	203.71	33.9753	240.299	26.9506	249.651	0.659592	238.224	-9.89874	222.038	35.2769	266.052
504990	-5.01661	237.337	4.03611	239.448	23.2442	203.945	33.7582	240.388	26.7214	249.642	0.496117	238.385	-9.95253	222.265	35.0795	265.909
504991	-5.14518	237.528	3.85182	239.585	23.1655	204.179	33.5409	240.476	26.4922	249.633	0.332358	238.545	-10.0066	222.491	34.8822	265.767
504992	-5.27402	237.718	3.66727	239.721	23.0861	204.413	33.3234	240.563	26.263	249.623	0.168319	238.706	-10.0608	222.717	34.685	265.624
504993	-5.40314	237.908	3.48247	239.857	23.006	204.647	33.1057	240.649	26.0339	249.613	0.00400147	238.865	-10.1153	222.944	34.4877	265.482
504994	-5.53252	238.099	3.29741	239.993	22.9252	204.88	32.8878	240.734	25.8047	249.602	-0.160593	239.025	-10.17	223.17	34.2906	265.34
504995	-5.66217	238.289	3.11209	240.128	22.8436	205.113	32.6698	240.819	25.5756	249.591	-0.325464	239.185	-10.225	223.396	34.0934	265.199
504996	-5.79209	238.479	2.92653	240.263	22.7614	205.345	32.4515	240.903	25.3465	249.58	-0.490607	239.344	-10.2802	223.622	33.8963	265.057
504997	-5.92227	238.668	2.74072	240.398	22.6784	205.577	32.2331	240.985	25.1174	249.568	-0.656023	239.502	-10.3356	223.849	33.6993	264.916
504998	-6.05271	238.858	2.55466	240.532	22.5948	205.808	32.0145	241.067	24.8883	249.556	-0.821709	239.661	-10.3912	224.075	33.5023	264.775
504999	-6.18342	239.048	2.36835	240.666	22.5104	206.039	31.7958	241.148	24.6593	249.544	-0.987663	239.819	-10.4471	224.301	33.3053	264.634
505000	-6.31438	239.237	2.1818	240.799	22.4254	206.269	31.5769	241.229	24.4303	249.531	-1.15388	239.977	-10.5031	224.527	33.1084	264.494
505001	-6.4456	239.426	1.995	240.933	22.3396	206.5	31.3578	241.308	24.2013	249.517	-1.32037	240.135	-10.5595	224.753	32.9115	264.354
505002	-6.57708	239.615	1.80797	241.065	22.2532	206.729	31.1385	241.387	23.9723	249.504	-1.48712	240.293	-10.616	224.979	32.7146	264.214
505003	-6.70882	239.804	1.62069	241.198	22.166	206.958	30.9191	241.465	23.7433	249.489	-1.65413	240.45	-10.6728	225.205	32.5179	264.074
505004	-6.8408	239.993	1.43318	241.33	22.0782	207.187	30.6995	241.542	23.5143	249.475	-1.8214	240.607	-10.7298	225.431	32.3211	263.934
505005	-6.97304	240.182	1.24544	241.462	21.9897	207.415	30.4798	241.618	23.2854	249.46	-1.98893	240.764	-10.787	225.657	32.1245	263.795
505006	-7.10552	240.371	1.05745	241.593	21.9005	207.643	30.2599	241.694	23.0565	249.445	-2.15671	240.92	-10.8444	225.883	31.9278	263.656
505007	-7.23826	240.559	0.869236	241.724	21.8107	207.87	30.0398	241.768	22.8276	249.429	-2.32475	241.076	-10.902	226.109	31.7312	263.516
505008	-7.37124	240.748	0.680789	241.855	21.7201	208.097	29.8196	241.842	22.5988	249.413	-2.49304	241.232	-10.9599	226.335	31.5347	263.378
505009	-7.50447	240.936	0.492112	241.985	21.6289	208.324	29.5993	241.915	22.3699	249.397	-2.66159	241.388	-11.018	226.561	31.3383	263.239
505010	-7.63794	241.124	0.303206	242.115	21.537	208.55	29.3788	241.988	22.1411	249.38	-2.83038	241.543	-11.0763	226.787	31.1419	263.101
505011	-7.77165	241.312	0.114074	242.245	21.4445	208.775	29.1581	242.059	21.9123	249.363	-2.99942	241.698	-11.1348	227.013	30.9455	262.962
505012	-7.9056	241.5	-0.0752825	242.374	21.3513	209	28.9373	242.13	21.6836	249.345	-3.16871	241.853	-11.1936	227.239	30.7492	262.824
505013	-8.03979	241.688	-0.264863	242.503	21.2574	209.225	28.7163	242.2	21.4549	249.328	-3.33824	242.008	-11.2525	227.465	30.553	262.686
505014	-8.17422	241.875	-0.454666	242.632	21.1628	209.449	28.4953	242.27	21.2262	249.309	-3.50802	242.162	-11.3117	227.691	30.3568	262.548
505015	-8.30888	242.063	-0.644689	242.76	21.0677	209.673	28.274	242.339	20.9975	249.291	-3.67803	242.317	-11.3711	227.917	30.1607	262.411
505016	-8.44378	242.25	-0.834932	242.888	20.9718	209.896	28.0527	242.406	20.7688	249.272	-3.84829	242.471	-11.4306	228.143	29.9646	262.273
505017	-8.57891	242.438	-1.02539	243.016	20.8753	210.119	27.8312	242.474	20.5402	249.252	-4.01879	242.624	-11.4904	228.369	29.7687	262.136
505018	-8.71427	242.625	-1.21607	243.144	20.7782	210.341	27.6095	242.54	20.3116	249.233	-4.18952	242.778	-11.5504	228.595	29.5727	261.999
505019	-8.84986	242.812	-1.40696	243.271	20.6804	210.563	27.3878	242.606	20.0831	249.213	-4.36049	242.931	-11.6107	228.821	29.3769	261.862
505020	-8.98567	242.999	-1.59806	243.398	20.5819	210.784	27.1659	242.671	19.8545	249.192	-4.53169	243.084	-11.6711	229.047	29.1811	261.725
505021	-9.12172	243.186	-1.78938	243.524	20.4829	211.005	26.9438	242.736	19.626	249.171	-4.70313	243.237	-11.7317	229.273	28.9854	261.588
505022	-9.25798	243.373	-1.9809	243.65	20.3832	211.225	26.7217	242.8	19.3976	249.15	-4.87479	243.39	-11.7926	229.498	28.7897	261.451
505023	-9.39447	243.56	-2.17264	243.776	20.2828	211.445	26.4994	242.863	19.1691	249.129	-5.04668	243.542	-11.8536	229.724	28.5941	261.315
505024	-9.53118	243.746	-2.36458	243.902	20.1818	211.665	26.277	242.925	18.9407	249.107	-5.2188	243.694	-11.9149	229.95	28.3986	261.178
505025	-9.66812	243.933	-2.55673	244.027	20.0802	211.883	26.0545	242.987	18.7124	249.085	-5.39115	243.846	-11.9763	230.176	28.2032	261.042
505026	-9.80526	244.119	-2.74908	244.152	19.978	212.102	25.8318	243.048	18.484	249.062	-5.56372	243.998	-12.038	230.402	28.0078	260.906
505027	-9.94263	244.306	-2.94163	244.277	19.8752	212.32	25.609	243.108	18.2557	249.039	-5.73652	244.149	-12.0998	230.628	27.8125	260.77
505028	-10.0802	244.492	-3.13439	244.401	19.7717	212.538	25.3861	243.168	18.0275	249.016	-5.90953	244.301	-12.1619	230.853	27.6173	260.634
505029	-10.218	244.678	-3.32735	244.525	19.6676	212.755	25.1631	243.227	17.7993	248.992	-6.08277	244.452	-12.2241	231.079	27.4222	260.498
505030	-10.356	244.864	-3.5205	244.649	19.5629	212.971	24.94	243.286	17.5711	248.968	-6.25622	244.603	-12.2866	231.305	27.2271	260.362
505031	-10.4942	245.051	-3.71386	244.773	19.4576	213.187	24.7168	243.344	17.3429	248.944	-6.42989	244.754	-12.3492	231.531	27.0321	260.227
505032	-10.6327	245.237	-3.90741	244.896	19.3517	213.403	24.4934	243.401	17.1148	248.919	-6.60378	244.904	-12.4121	231.757	26.8372	260.091
505033	-10.7713	245.423	-4.10116	245.019	19.2451	213.618	24.27	243.458	16.8867	248.894	-6.77788	245.054	-12.4751	231.982	26.6424	259.956
505034	-10.9101	245.608	-4.29509	245.142	19.138	213.833	24.0464	243.514	16.6587	248.868	-6.95219	245.204	-12.5384	232.208	26.4477	259.82
505035	-11.0492	245.794	-4.48923	245.264	19.0303	214.047	23.8227	243.569	16.4307	248.843	-7.12672	245.354	-12.6018	232.434	26.253	259.685
505036	-11.1884	245.98	-4.68355	245.387	18.9219	214.261	23.5989	243.624	16.2027	248.816	-7.30145	245.504	-12.6654	232.66	26.0584	259.55
505037	-11.3279	246.166	-4.87806	245.508	18.813	214.474	23.375	243.678	15.9748	248.79	-7.47639	245.654	-12.7292	232.886	25.8639	259.414
505038	-11.4675	246.351	-5.07276	245.63	18.7035	214.687	23.151	243.732	15.747	248.763	-7.65154	245.803	-12.7933	233.112	25.6695	259.279
505039	-11.6074	246.537	-5.26765	245.751	18.5934	214.899	22.9269	243.784	15.5191	248.736	-7.82689	245.952	-12.8574	233.337	25.4752	259.144
505040	-11.7474	246.722	-5.46272	245.873	18.4827	215.111	22.7027	243.837	15.2913	248.708	-8.00245	246.101	-12.9218	233.563	25.281	259.009
505041	-11.8876	246.907	-5.65798	245.994	18.3715	215.323	22.4784	243.888	15.0636	248.681	-8.1782	246.25	-12.9864	233.789	25.0868	258.875
505042	-12.0281	247.093	-5.85342	246.114	18.2596	215.534	22.254	243.94	14.8359	248.652	-8.35416	246.398	-13.0511	234.015	24.8928	258.74
505043	-12.1687	247.278	-6.04904	246.234	18.1472	215.744	22.0295	243.99	14.6082	248.624	-8.53032	246.547	-13.1161	234.24	24.6988	258.605
505044	-12.3095	247.463	-6.24485	246.355	18.0342	215.954	21.8049	244.04	14.3806	248.595	-8.70668	246.695	-13.1812	234.466	24.505	258.47
505045	-12.4505	247.648	-6.44083	246.474	17.9206	216.163	21.5802	244.09	14.153	248.566	-8.88323	246.843	-13.2465	234.692	24.3112	258.335
505046	-12.5917	247.833	-6.63699	246.594	17.8065	216.372	21.3555	244.139	13.9255	248.536	-9.05998	246.991	-13.312	234.918	24.1175	258.201
505047	-12.7331	248.019	-6.83333	246.713	17.6918	216.581	21.1306	244.187	13.698	248.506	-9.23692	247.139	-13.3777	235.144	23.9239	258.066
505048	-12.8746	248.204	-7.02985	246.832	17.5765	216.789	20.9056	244.235	13.4706	248.476	-9.41406	247.287	-13.4436	235.37	23.7304	257.932
505049	-13.0164	248.389	-7.22654	246.951	17.4607	216.996	20.6806	244.282	13.2432	248.445	-9.59138	247.434	-13.5096	235.595	23.537	257.797
505050	-13.1583	248.574	-7.4234	247.07	17.3443	217.204	20.4554	244.328	13.0159	248.414	-9.7689	247.581	-13.5758	235.821	23.3438	257.663
505051	-13.3004	248.758	-7.62044	247.188	17.2273	217.41	20.2302	244.374	12.7886	248.383	-9.9466	247.728	-13.6422	236.047	23.1505	257.528
505052	-13.4427	248.943	-7.81764	247.306	17.1098	217.616	20.0049	244.42	12.5613	248.351	-10.1245	247.875	-13.7088	236.273	22.9575	257.394
505053	-13.5851	249.128	-8.01502	247.424	16.9918	217.822	19.7795	244.465	12.3341	248.319	-10.3026	248.022	-13.7755	236.499	22.7645	257.259
505054	-13.7278	249.313	-8.21256	247.542	16.8732	218.027	19.554	244.509	12.107	248.286	-10.4808	248.169	-13.8424	236.725	22.5716	257.125
505055	-13.8706	249.498	-8.41028	247.659	16.7541	218.232	19.3284	244.553	11.8799	248.254	-10.6593	248.315	-13.9095	236.951	22.3788	256.99
505056	-14.0136	249.683	-8.60816	247.776	16.6344	218.436	19.1028	244.596	11.6529	248.221	-10.8379	248.462	-13.9768	237.177	22.1861	256.856
505057	-14.1567	249.867	-8.8062	247.893	16.5142	218.64	18.877	244.639	11.4259	248.187	-11.0167	248.608	-14.0442	237.403	21.9935	256.721
505058	-14.3	250.052	-9.00441	248.01	16.3934	218.843	18.6512	244.682	11.199	248.153	-11.1957	248.754	-14.1118	237.629	21.8011	256.587
505059	-14.4435	250.237	-9.20278	248.127	16.2721	219.046	18.4253	244.723	10.9721	248.119	-11.3748	248.9	-14.1796	237.854	21.6087	256.453
505060	-14.5872	250.421	-9.40131	248.243	16.1503	219.248	18.1993	244.765	10.7453	248.085	-11.5542	249.046	-14.2475	238.08	21.4164	256.318
505061	-14.731	250.606	-9.60001	248.359	16.028	219.45	17.9733	244.805	10.5185	248.05	-11.7337	249.192	-14.3156	238.306	21.2243	256.184
505062	-14.875	250.791	-9.79886	248.475	15.9051	219.652	17.7472	244.846	10.2918	248.015	-11.9134	249.337	-14.3839	238.532	21.0323	256.05
505063	-15.0191	250.975	-9.99788	248.591	15.7818	219.853	17.521	244.885	10.0652	247.979	-12.0932	249.483	-14.4524	238.758	20.8403	255.915
505064	-15.1634	251.16	-10.197	248.706	15.6579	220.053	17.2947	244.924	9.83859	247.943	-12.2733	249.628	-14.521	238.984	20.6485	255.781
505065	-15.3079	251.344	-10.3964	248.821	15.5334	220.253	17.0684	244.963	9.61205	247.907	-12.4535	249.773	-14.5897	239.21	20.4568	255.646
505066	-15.4525	251.529	-10.5959	248.937	15.4085	220.453	16.842	245.001	9.38558	247.87	-12.6338	249.918	-14.6587	239.436	20.2652	255.512
505067	-15.5973	251.714	-10.7955	249.051	15.2831	220.652	16.6155	245.039	9.15916	247.834	-12.8143	250.064	-14.7278	239.662	20.0738	255.377
505068	-15.7422	251.898	-10.9953	249.166	15.1571	220.85	16.389	245.076	8.9328	247.796	-12.9951	250.208	-14.797	239.889	19.8824	255.243
505069	-15.8873	252.083	-11.1952	249.281	15.0307	221.049	16.1623	245.113	8.7065	247.759	-13.1759	250.353	-14.8664	240.115	19.6912	255.108
505070	-16.0325	252.267	-11.3953	249.395	14.9037	221.246	15.9357	245.149	8.48027	247.721	-13.3569	250.498	-14.936	240.341	19.5001	254.974
505071	-16.1779	252.452	-11.5955	249.509	14.7762	221.444	15.7089	245.185	8.25409	247.682	-13.5381	250.642	-15.0057	240.567	19.3091	254.839
505072	-16.3235	252.637	-11.7959	249.623	14.6483	221.64	15.4821	245.22	8.02798	247.644	-13.7195	250.787	-15.0756	240.793	19.1182	254.704
505073	-16.4691	252.821	-11.9965	249.737	14.5198	221.837	15.2552	245.255	7.80193	247.605	-13.901	250.931	-15.1456	241.019	18.9275	254.57
505074	-16.615	253.006	-12.1972	249.85	14.3909	222.032	15.0283	245.289	7.57595	247.565	-14.0826	251.075	-15.2158	241.246	18.7369	254.435
505075	-16.7609	253.19	-12.398	249.963	14.2615	222.228	14.8013	245.323	7.35002	247.525	-14.2645	251.22	-15.2861	241.472	18.5464	254.3
505076	-16.907	253.375	-12.599	250.077	14.1316	222.423	14.5742	245.356	7.12417	247.485	-14.4465	251.364	-15.3566	241.698	18.356	254.166
505077	-17.0533	253.56	-12.8001	250.189	14.0012	222.617	14.3471	245.389	6.89838	247.445	-14.6286	251.508	-15.4273	241.924	18.1657	254.031
505078	-17.1997	253.745	-13.0014	250.302	13.8703	222.811	14.1199	245.421	6.67265	247.404	-14.8109	251.651	-15.498	242.151	17.9756	253.896
505079	-17.3462	253.929	-13.2028	250.415	13.7389	223.005	13.8927	245.453	6.447	247.363	-14.9933	251.795	-15.569	242.377	17.7857	253.761
505080	-17.4929	254.114	-13.4043	250.527	13.6071	223.198	13.6654	245.484	6.22141	247.321	-15.1759	251.939	-15.6401	242.603	17.5958	253.626
505081	-17.6397	254.299	-13.606	250.639	13.4748	223.391	13.438	245.515	5.99589	247.28	-15.3586	252.083	-15.7113	242.83	17.4061	253.491
505082	-17.7866	254.484	-13.8078	250.752	13.342	223.583	13.2106	245.546	5.77044	247.237	-15.5415	252.226	-15.7827	243.056	17.2165	253.356
505083	-17.9337	254.669	-14.0098	250.864	13.2087	223.775	12.9832	245.576	5.54506	247.195	-15.7246	252.37	-15.8542	243.283	17.027	253.22
505084	-18.0809	254.854	-14.2119	250.975	13.075	223.966	12.7556	245.605	5.31975	247.152	-15.9077	252.513	-15.9258	243.509	16.8377	253.085
505085	-18.2282	255.038	-14.4141	251.087	12.9408	224.157	12.5281	245.634	5.09451	247.108	-16.091	252.656	-15.9976	243.736	16.6485	252.95
505086	-18.3756	255.224	-14.6165	251.198	12.8062	224.347	12.3004	245.663	4.86935	247.065	-16.2745	252.8	-16.0696	243.963	16.4595	252.814
505087	-18.5232	255.409	-14.819	251.31	12.6711	224.537	12.0728	245.691	4.64425	247.021	-16.4581	252.943	-16.1416	244.189	16.2706	252.679
505088	-18.6709	255.594	-15.0216	251.421	12.5355	224.727	11.8451	245.719	4.41923	246.976	-16.6419	253.086	-16.2139	244.416	16.0818	252.543
505089	-18.8187	255.779	-15.2244	251.532	12.3995	224.916	11.6173	245.746	4.19429	246.932	-16.8258	253.229	-16.2862	244.642	15.8931	252.407
505090	-18.9667	255.964	-15.4273	251.643	12.2631	225.105	11.3895	245.773	3.96942	246.887	-17.0098	253.372	-16.3587	244.869	15.7047	252.272
505091	-19.1147	256.149	-15.6303	251.753	12.1262	225.293	11.1616	245.799	3.74463	246.841	-17.194	253.515	-16.4313	245.096	15.5163	252.136
505092	-19.2629	256.335	-15.8335	251.864	11.9888	225.481	10.9337	245.825	3.51991	246.795	-17.3783	253.658	-16.5041	245.323	15.3281	252
505093	-19.4112	256.52	-16.0368	251.974	11.851	225.668	10.7057	245.851	3.29527	246.749	-17.5627	253.801	-16.577	245.549	15.14	251.864
505094	-19.5596	256.705	-16.2402	252.084	11.7128	225.855	10.4777	245.876	3.07071	246.702	-17.7473	253.944	-16.65	245.776	14.9521	251.728
505095	-19.7081	256.891	-16.4437	252.195	11.5741	226.042	10.2497	245.901	2.84622	246.655	-17.932	254.087	-16.7231	246.003	14.7644	251.592
505096	-19.8568	257.077	-16.6474	252.304	11.435	226.228	10.0216	245.925	2.62182	246.608	-18.1168	254.229	-16.7964	246.23	14.5768	251.455
505097	-20.0055	257.262	-16.8512	252.414	11.2955	226.413	9.79343	245.948	2.3975	246.56	-18.3017	254.372	-16.8698	246.457	14.3893	251.319
505098	-20.1544	257.448	-17.0551	252.524	11.1555	226.599	9.56525	245.972	2.17326	246.512	-18.4868	254.515	-16.9434	246.684	14.202	251.182
505099	-20.3033	257.634	-17.2591	252.634	11.0151	226.783	9.33703	245.995	1.9491	246.464	-18.672	254.657	-17.017	246.911	14.0148	251.046
505100	-20.4524	257.82	-17.4633	252.743	10.8743	226.968	9.10877	246.017	1.72502	246.415	-18.8574	254.8	-17.0908	247.138	13.8278	250.909
505101	-20.6016	258.006	-17.6675	252.852	10.733	227.151	8.88047	246.039	1.50103	246.366	-19.0429	254.943	-17.1647	247.366	13.6409	250.772
505102	-20.7509	258.192	-17.8719	252.962	10.5914	227.335	8.65213	246.061	1.27712	246.316	-19.2285	255.085	-17.2387	247.593	13.4542	250.635
505103	-20.9002	258.378	-18.0765	253.071	10.4493	227.518	8.42376	246.082	1.0533	246.266	-19.4142	255.228	-17.3129	247.82	13.2677	250.498
505104	-21.0497	258.564	-18.2811	253.18	10.3068	227.701	8.19535	246.103	0.829565	246.216	-19.6	255.37	-17.3872	248.047	13.0813	250.361
505105	-21.1993	258.751	-18.4859	253.288	10.1639	227.883	7.9669	246.123	0.605916	246.165	-19.786	255.513	-17.4616	248.275	12.8951	250.223
505106	-21.349	258.937	-18.6907	253.397	10.0206	228.065	7.73841	246.143	0.382354	246.114	-19.9721	255.655	-17.5361	248.502	12.709	250.086
505107	-21.4987	259.124	-18.8957	253.506	9.87681	228.246	7.5099	246.162	0.158882	246.062	-20.1583	255.798	-17.6107	248.73	12.5231	249.948
505108	-21.6486	259.31	-19.1008	253.614	9.73267	228.427	7.28134	246.181	-0.0645011	246.01	-20.3446	255.941	-17.6854	248.957	12.3374	249.81
505109	-21.7986	259.497	-19.306	253.723	9.58813	228.608	7.05276	246.2	-0.287794	245.958	-20.531	256.083	-17.7603	249.185	12.1518	249.673
505110	-21.9486	259.684	-19.5114	253.831	9.44318	228.788	6.82414	246.218	-0.510995	245.905	-20.7175	256.226	-17.8353	249.412	11.9664	249.535
505111	-22.0987	259.871	-19.7168	253.939	9.29783	228.968	6.59549	246.236	-0.734105	245.852	-20.9042	256.368	-17.9103	249.64	11.7811	249.396
505112	-22.249	260.058	-19.9224	254.047	9.15209	229.147	6.36681	246.254	-0.957121	245.799	-21.091	256.511	-17.9855	249.868	11.5961	249.258
505113	-22.3993	260.245	-20.1281	254.155	9.00596	229.326	6.1381	246.271	-1.18004	245.745	-21.2779	256.653	-18.0608	250.096	11.4112	249.12
505114	-22.5497	260.433	-20.3338	254.263	8.85942	229.505	5.90936	246.287	-1.40287	245.691	-21.4649	256.796	-18.1362	250.323	11.2264	248.981
505115	-22.7001	260.62	-20.5397	254.371	8.71251	229.683	5.68059	246.303	-1.6256	245.636	-21.652	256.938	-18.2118	250.551	11.0419	248.842
505116	-22.8507	260.808	-20.7457	254.479	8.5652	229.861	5.45179	246.319	-1.84824	245.581	-21.8392	257.081	-18.2874	250.779	10.8575	248.703
505117	-23.0013	260.996	-20.9518	254.586	8.41751	230.038	5.22297	246.334	-2.07078	245.526	-22.0265	257.224	-18.3631	251.007	10.6732	248.565
505118	-23.152	261.183	-21.158	254.694	8.26943	230.215	4.99412	246.349	-2.29322	245.47	-22.2139	257.366	-18.4389	251.236	10.4892	248.425
505119	-23.3028	261.372	-21.3643	254.801	8.12097	230.392	4.76524	246.364	-2.51556	245.414	-22.4015	257.509	-18.5149	251.464	10.3053	248.286
505120	-23.4537	261.56	-21.5707	254.909	7.97214	230.568	4.53634	246.378	-2.7378	245.357	-22.5891	257.652	-18.5909	251.692	10.1217	248.146
505121	-23.6046	261.748	-21.7773	255.016	7.82292	230.744	4.30742	246.392	-2.95994	245.3	-22.7768	257.794	-18.667	251.92	9.93815	248.007
505122	-23.7557	261.936	-21.9839	255.123	7.67334	230.919	4.07847	246.405	-3.18197	245.243	-22.9647	257.937	-18.7433	252.149	9.75482	247.867
505123	-23.9067	262.125	-22.1906	255.23	7.52338	231.095	3.8495	246.418	-3.40391	245.185	-23.1526	258.08	-18.8196	252.377	9.57168	247.727
505124	-24.0579	262.314	-22.3974	255.337	7.37305	231.269	3.6205	246.43	-3.62574	245.126	-23.3406	258.223	-18.896	252.605	9.38872	247.587
505125	-24.2091	262.503	-22.6044	255.444	7.22236	231.443	3.39149	246.442	-3.84746	245.068	-23.5288	258.366	-18.9726	252.834	9.20594	247.446
505126	-24.3604	262.692	-22.8114	255.551	7.0713	231.617	3.16245	246.454	-4.06908	245.009	-23.717	258.509	-19.0492	253.063	9.02335	247.306
505127	-24.5117	262.881	-23.0186	255.658	6.91987	231.791	2.93339	246.465	-4.29059	244.949	-23.9053	258.652	-19.1259	253.291	8.84095	247.165
505128	-24.6632	263.07	-23.2258	255.765	6.76809	231.964	2.70432	246.476	-4.512	244.889	-24.0937	258.795	-19.2027	253.52	8.65873	247.024
505129	-24.8146	263.26	-23.4331	255.872	6.61594	232.137	2.47523	246.487	-4.73329	244.829	-24.2823	258.938	-19.2796	253.749	8.47671	246.883
505130	-24.9662	263.45	-23.6405	255.978	6.46344	232.309	2.24612	246.497	-4.95448	244.768	-24.4708	259.081	-19.3566	253.978	8.29487	246.742
505131	-25.1178	263.64	-23.8481	256.085	6.31059	232.481	2.01699	246.506	-5.17555	244.707	-24.6595	259.225	-19.4337	254.207	8.11323	246.6
505132	-25.2694	263.83	-24.0557	256.192	6.15738	232.653	1.78784	246.516	-5.39651	244.645	-24.8483	259.368	-19.5108	254.436	7.93179	246.459
505133	-25.4211	264.02	-24.2634	256.298	6.00382	232.824	1.55868	246.525	-5.61736	244.583	-25.0372	259.512	-19.588	254.665	7.75054	246.317
505134	-25.5728	264.211	-24.4712	256.405	5.84992	232.995	1.3295	246.533	-5.8381	244.52	-25.2262	259.655	-19.6654	254.894	7.56948	246.175
505135	-25.7247	264.401	-24.6791	256.511	5.69566	233.166	1.10031	246.541	-6.05872	244.458	-25.4152	259.799	-19.7428	255.124	7.38863	246.033
505136	-25.8765	264.592	-24.8871	256.618	5.54107	233.336	0.87111	246.549	-6.27922	244.394	-25.6044	259.942	-19.8203	255.353	7.20797	245.89
505137	-26.0284	264.783	-25.0952	256.724	5.38613	233.506	0.641894	246.556	-6.49961	244.33	-25.7936	260.086	-19.8979	255.582	7.02751	245.748
505138	-26.1804	264.975	-25.3033	256.83	5.23085	233.675	0.412665	246.563	-6.71988	244.266	-25.9829	260.23	-19.9755	255.812	6.84726	245.605
505139	-26.3324	265.166	-25.5116	256.936	5.07524	233.844	0.183424	246.569	-6.94002	244.201	-26.1723	260.374	-20.0533	256.041	6.66721	245.462
505140	-26.4844	265.358	-25.72	257.043	4.91929	234.013	-0.0458274	246.576	-7.16005	244.136	-26.3617	260.518	-20.1311	256.271	6.48737	245.319
505141	-26.6365	265.55	-25.9284	257.149	4.763	234.182	-0.275089	246.581	-7.37996	244.071	-26.5513	260.662	-20.209	256.501	6.30773	245.175
505142	-26.7886	265.742	-26.1369	257.255	4.60639	234.35	-0.50436	246.586	-7.59974	244.005	-26.7409	260.807	-20.2869	256.731	6.1283	245.031
505143	-26.9407	265.934	-26.3456	257.361	4.44944	234.518	-0.73364	246.591	-7.8194	243.938	-26.9306	260.951	-20.365	256.961	5.94908	244.888
505144	-27.0929	266.127	-26.5543	257.467	4.29217	234.685	-0.962928	246.596	-8.03893	243.871	-27.1204	261.096	-20.4431	257.191	5.77008	244.744
505145	-27.2451	266.32	-26.7631	257.574	4.13457	234.852	-1.19222	246.6	-8.25834	243.804	-27.3102	261.24	-20.5213	257.421	5.59128	244.599
505146	-27.3974	266.513	-26.9719	257.68	3.97665	235.019	-1.42152	246.604	-8.47762	243.736	-27.5001	261.385	-20.5995	257.651	5.4127	244.455
505147	-27.5497	266.706	-27.1809	257.786	3.8184	235.185	-1.65083	246.607	-8.69677	243.667	-27.6901	261.53	-20.6778	257.882	5.23433	244.31
505148	-27.702	266.899	-27.39	257.892	3.65984	235.351	-1.88015	246.61	-8.9158	243.599	-27.8802	261.675	-20.7562	258.112	5.05618	244.165
505149	-27.8544	267.093	-27.5991	257.998	3.50096	235.517	-2.10947	246.612	-9.13469	243.529	-28.0703	261.82	-20.8347	258.342	4.87825	244.02
505150	-28.0067	267.287	-27.8083	258.104	3.34176	235.682	-2.33879	246.614	-9.35345	243.46	-28.2605	261.966	-20.9132	258.573	4.70054	243.874
505151	-28.1591	267.481	-28.0176	258.21	3.18225	235.847	-2.56811	246.616	-9.57207	243.389	-28.4508	262.111	-20.9918	258.804	4.52305	243.728
505152	-28.3116	267.676	-28.227	258.316	3.02243	236.012	-2.79744	246.618	-9.79056	243.319	-28.6412	262.257	-21.0704	259.035	4.34578	243.583
505153	-28.464	267.87	-28.4364	258.422	2.8623	236.176	-3.02677	246.618	-10.0089	243.248	-28.8316	262.402	-21.1491	259.266	4.16874	243.436
505154	-28.6165	268.065	-28.646	258.529	2.70186	236.34	-3.2561	246.619	-10.2271	243.176	-29.0221	262.548	-21.2279	259.497	3.99192	243.29
505155	-28.7689	268.261	-28.8556	258.635	2.54112	236.504	-3.48543	246.619	-10.4452	243.104	-29.2126	262.694	-21.3067	259.728	3.81533	243.143
505156	-28.9214	268.456	-29.0653	258.741	2.38007	236.667	-3.71476	246.619	-10.6632	243.031	-29.4032	262.841	-21.3856	259.959	3.63897	242.996
505157	-29.0739	268.652	-29.275	258.847	2.21872	236.831	-3.94409	246.618	-10.881	242.958	-29.5938	262.987	-21.4646	260.19	3.46284	242.849
505158	-29.2264	268.848	-29.4849	258.953	2.05707	236.993	-4.17342	246.617	-11.0986	242.885	-29.7846	263.134	-21.5436	260.422	3.28694	242.702
505159	-29.379	269.045	-29.6948	259.059	1.89512	237.156	-4.40275	246.615	-11.3161	242.81	-29.9753	263.28	-21.6226	260.653	3.11128	242.554
505160	-29.5315	269.241	-29.9048	259.165	1.73287	237.318	-4.63208	246.614	-11.5335	242.736	-30.1662	263.427	-21.7017	260.885	2.93585	242.406
505161	-29.6841	269.438	-30.1149	259.272	1.57033	237.48	-4.86139	246.611	-11.7507	242.661	-30.3571	263.575	-21.7809	261.116	2.76065	242.258
505162	-29.8366	269.635	-30.325	259.378	1.4075	237.641	-5.09071	246.609	-11.9678	242.585	-30.548	263.722	-21.8601	261.348	2.5857	242.11
505163	-29.9892	269.833	-30.5352	259.484	1.24437	237.803	-5.32002	246.606	-12.1847	242.509	-30.739	263.869	-21.9393	261.58	2.41099	241.961
505164	-30.1417	270.031	-30.7455	259.591	1.08096	237.964	-5.54933	246.602	-12.4015	242.433	-30.9301	264.017	-22.0186	261.812	2.23651	241.812
505165	-30.2943	270.229	-30.9559	259.697	0.917261	238.124	-5.77863	246.598	-12.6181	242.356	-31.1212	264.165	-22.098	262.044	2.06228	241.663
505166	-30.4468	270.428	-31.1663	259.803	0.753276	238.285	-6.00792	246.594	-12.8346	242.278	-31.3123	264.313	-22.1774	262.277	1.8883	241.513
505167	-30.5994	270.626	-31.3768	259.91	0.589007	238.445	-6.2372	246.589	-13.0509	242.2	-31.5036	264.462	-22.2568	262.509	1.71456	241.363
505168	-30.7519	270.825	-31.5874	260.016	0.424457	238.604	-6.46648	246.584	-13.267	242.121	-31.6948	264.61	-22.3363	262.741	1.54107	241.214
505169	-30.9045	271.025	-31.798	260.123	0.259626	238.764	-6.69574	246.579	-13.4831	242.042	-31.8861	264.759	-22.4158	262.974	1.36783	241.063
505170	-31.057	271.225	-32.0087	260.229	0.0945175	238.923	-6.925	246.573	-13.6989	241.962	-32.0775	264.908	-22.4954	263.207	1.19484	240.913
505171	-31.2095	271.425	-32.2195	260.336	-0.0708676	239.082	-7.15425	246.566	-13.9146	241.882	-32.2689	265.057	-22.575	263.44	1.02211	240.762
505172	-31.362	271.625	-32.4303	260.443	-0.236527	239.24	-7.38348	246.56	-14.1301	241.801	-32.4603	265.207	-22.6546	263.673	0.849623	240.611
505173	-31.5145	271.826	-32.6413	260.55	-0.40246	239.399	-7.6127	246.553	-14.3455	241.72	-32.6518	265.356	-22.7343	263.906	0.677398	240.459
505174	-31.667	272.027	-32.8522	260.657	-0.568663	239.557	-7.84191	246.545	-14.5607	241.638	-32.8433	265.506	-22.814	264.139	0.505431	240.307
505175	-31.8194	272.228	-33.0633	260.764	-0.735136	239.714	-8.07111	246.537	-14.7757	241.555	-33.0348	265.657	-22.8937	264.372	0.333724	240.155
505176	-31.9718	272.43	-33.2744	260.871	-0.901877	239.872	-8.30029	246.529	-14.9905	241.473	-33.2264	265.807	-22.9735	264.606	0.162278	240.003
505177	-32.1243	272.632	-33.4856	260.978	-1.06888	240.029	-8.52946	246.52	-15.2052	241.389	-33.4181	265.958	-23.0533	264.839	-0.00890436	239.85
505178	-32.2766	272.835	-33.6968	261.085	-1.23615	240.186	-8.75861	246.511	-15.4197	241.305	-33.6097	266.109	-23.1331	265.073	-0.179822	239.697
505179	-32.429	273.038	-33.9081	261.192	-1.40369	240.343	-8.98775	246.501	-15.6341	241.22	-33.8014	266.26	-23.213	265.307	-0.350473	239.544
505180	-32.5813	273.241	-34.1194	261.3	-1.57148	240.499	-9.21686	246.491	-15.8483	241.135	-33.9932	266.412	-23.2929	265.541	-0.520856	239.391
505181	-32.7336	273.445	-34.3308	261.407	-1.73953	240.655	-9.44596	246.481	-16.0622	241.049	-34.1849	266.564	-23.3728	265.775	-0.690968	239.237
505182	-32.8859	273.649	-34.5423	261.515	-1.90784	240.811	-9.67505	246.47	-16.2761	240.963	-34.3767	266.716	-23.4527	266.009	-0.860809	239.083
505183	-33.0381	273.853	-34.7538	261.622	-2.07641	240.967	-9.90411	246.459	-16.4897	240.876	-34.5686	266.868	-23.5327	266.244	-1.03038	238.929
505184	-33.1903	274.058	-34.9654	261.73	-2.24523	241.122	-10.1332	246.447	-16.7032	240.789	-34.7604	267.021	-23.6126	266.478	-1.19967	238.774
505185	-33.3425	274.263	-35.1771	261.838	-2.4143	241.277	-10.3622	246.435	-16.9164	240.701	-34.9523	267.174	-23.6926	266.713	-1.36868	238.619
505186	-33.4946	274.469	-35.3888	261.946	-2.58363	241.432	-10.5912	246.423	-17.1295	240.612	-35.1442	267.327	-23.7727	266.948	-1.53742	238.463
505187	-33.6467	274.675	-35.6006	262.054	-2.7532	241.587	-10.8201	246.41	-17.3424	240.523	-35.3361	267.481	-23.8527	267.183	-1.70587	238.308
505188	-33.7987	274.881	-35.8124	262.162	-2.92302	241.741	-11.0491	246.396	-17.5551	240.433	-35.5281	267.635	-23.9327	267.418	-1.87404	238.152
505189	-33.9507	275.088	-36.0243	262.271	-3.09308	241.895	-11.278	246.382	-17.7676	240.343	-35.7201	267.789	-24.0128	267.653	-2.04193	237.995
505190	-34.1026	275.295	-36.2362	262.379	-3.26339	242.049	-11.5069	246.368	-17.98	240.251	-35.9121	267.944	-24.0929	267.888	-2.20953	237.839
505191	-34.2545	275.503	-36.4482	262.488	-3.43394	242.202	-11.7358	246.354	-18.1921	240.16	-36.1041	268.099	-24.173	268.123	-2.37684	237.682
505192	-34.4063	275.711	-36.6602	262.596	-3.60474	242.356	-11.9647	246.339	-18.4041	240.067	-36.2961	268.255	-24.2531	268.359	-2.54387	237.524
505193	-34.5581	275.92	-36.8723	262.705	-3.77577	242.509	-12.1935	246.323	-18.6158	239.975	-36.4882	268.41	-24.3332	268.595	-2.7106	237.367
505194	-34.7098	276.129	-37.0844	262.815	-3.94704	242.662	-12.4223	246.307	-18.8273	239.881	-36.6802	268.566	-24.4133	268.831	-2.87703	237.209
505195	-34.8614	276.338	-37.2966	262.924	-4.11855	242.814	-12.6511	246.291	-19.0387	239.787	-36.8723	268.723	-24.4934	269.067	-3.04317	237.051
505196	-35.013	276.548	-37.5089	263.033	-4.29029	242.967	-12.8798	246.274	-19.2498	239.692	-37.0644	268.88	-24.5736	269.303	-3.20902	236.892
505197	-35.1645	276.759	-37.7212	263.142	-4.46226	243.119	-13.1085	246.257	-19.4608	239.597	-37.2565	269.037	-24.6537	269.539	-3.37456	236.733
505198	-35.316	276.969	-37.9335	263.252	-4.63447	243.271	-13.3372	246.239	-19.6715	239.501	-37.4486	269.194	-24.7339	269.776	-3.5398	236.574
505199	-35.4674	277.181	-38.1459	263.362	-4.8069	243.422	-13.5659	246.221	-19.882	239.404	-37.6407	269.352	-24.814	270.013	-3.70474	236.414
505200	-35.6187	277.392	-38.3583	263.472	-4.97957	243.574	-13.7945	246.202	-20.0923	239.307	-37.8328	269.51	-24.8941	270.249	-3.86938	236.254
505201	-35.77	277.605	-38.5708	263.582	-5.15246	243.725	-14.0231	246.183	-20.3025	239.209	-38.0249	269.669	-24.9743	270.486	-4.0337	236.094
505202	-35.9212	277.817	-38.7833	263.693	-5.32557	243.876	-14.2516	246.164	-20.5123	239.11	-38.2171	269.828	-25.0544	270.724	-4.19772	235.933
505203	-36.0723	278.031	-38.9959	263.803	-5.49891	244.027	-14.4802	246.144	-20.722	239.011	-38.4092	269.988	-25.1345	270.961	-4.36143	235.772
505204	-36.2233	278.244	-39.2085	263.914	-5.67247	244.178	-14.7086	246.124	-20.9315	238.911	-38.6013	270.148	-25.2147	271.198	-4.52482	235.611
505205	-36.3742	278.459	-39.4212	264.025	-5.84626	244.328	-14.9371	246.103	-21.1407	238.811	-38.7934	270.308	-25.2948	271.436	-4.6879	235.449
505206	-36.5251	278.673	-39.6339	264.136	-6.02026	244.478	-15.1655	246.081	-21.3497	238.709	-38.9856	270.469	-25.3749	271.673	-4.85066	235.287
505207	-36.6758	278.889	-39.8466	264.247	-6.19448	244.628	-15.3939	246.06	-21.5585	238.607	-39.1777	270.631	-25.455	271.911	-5.0131	235.124
505208	-36.8265	279.104	-40.0594	264.359	-6.36891	244.778	-15.6222	246.037	-21.767	238.505	-39.3698	270.792	-25.5351	272.149	-5.17522	234.961
505209	-36.9771	279.321	-40.2723	264.471	-6.54357	244.928	-15.8505	246.015	-21.9753	238.401	-39.5619	270.955	-25.6152	272.388	-5.33702	234.798
505210	-37.1276	279.538	-40.4851	264.583	-6.71843	245.077	-16.0787	245.992	-22.1834	238.298	-39.754	271.117	-25.6952	272.626	-5.49849	234.635
505211	-37.278	279.755	-40.698	264.695	-6.8935	245.226	-16.307	245.968	-22.3913	238.193	-39.9461	271.281	-25.7753	272.865	-5.65964	234.471
505212	-37.4283	279.973	-40.911	264.807	-7.06879	245.375	-16.5351	245.944	-22.5989	238.087	-40.1382	271.444	-25.8553	273.103	-5.82045	234.306
505213	-37.5785	280.191	-41.124	264.92	-7.24428	245.524	-16.7632	245.92	-22.8063	237.981	-40.3302	271.608	-25.9353	273.342	-5.98094	234.142
505214	-37.7286	280.41	-41.337	265.033	-7.41999	245.673	-16.9913	245.895	-23.0134	237.874	-40.5223	271.773	-26.0153	273.581	-6.14109	233.976
505215	-37.8786	280.63	-41.55	265.146	-7.5959	245.821	-17.2194	245.869	-23.2203	237.767	-40.7143	271.938	-26.0953	273.821	-6.30091	233.811
505216	-38.0285	280.85	-41.7632	265.26	-7.77201	245.969	-17.4474	245.843	-23.427	237.659	-40.9063	272.104	-26.1752	274.06	-6.46038	233.645
505217	-38.1783	281.071	-41.9763	265.373	-7.94832	246.117	-17.6753	245.817	-23.6334	237.55	-41.0983	272.27	-26.2552	274.3	-6.61952	233.479
505218	-38.3279	281.292	-42.1894	265.487	-8.12484	246.265	-17.9032	245.79	-23.8396	237.44	-41.2903	272.437	-26.3351	274.539	-6.77832	233.313
505219	-38.4775	281.514	-42.4026	265.601	-8.30156	246.413	-18.131	245.763	-24.0455	237.329	-41.4822	272.604	-26.415	274.779	-6.93677	233.145
505220	-38.6269	281.736	-42.6159	265.716	-8.47848	246.56	-18.3588	245.735	-24.2511	237.218	-41.6741	272.772	-26.4948	275.019	-7.09487	232.978
505221	-38.7762	281.959	-42.8291	265.831	-8.65559	246.708	-18.5866	245.706	-24.4565	237.106	-41.866	272.94	-26.5746	275.26	-7.25263	232.81
505222	-38.9254	282.183	-43.0424	265.946	-8.8329	246.855	-18.8143	245.678	-24.6616	236.993	-42.0579	273.109	-26.6544	275.5	-7.41004	232.642
505223	-39.0744	282.407	-43.2558	266.061	-9.01041	247.002	-19.0419	245.648	-24.8665	236.88	-42.2497	273.279	-26.7342	275.741	-7.56709	232.474
505224	-39.2234	282.632	-43.4691	266.177	-9.1881	247.149	-19.2695	245.618	-25.0711	236.766	-42.4415	273.449	-26.8139	275.982	-7.72379	232.305
505225	-39.3722	282.857	-43.6825	266.293	-9.36599	247.295	-19.4971	245.588	-25.2754	236.651	-42.6332	273.62	-26.8936	276.223	-7.88013	232.135
505226	-39.5208	283.084	-43.8959	266.409	-9.54407	247.442	-19.7245	245.557	-25.4795	236.535	-42.825	273.791	-26.9732	276.464	-8.03612	231.966
505227	-39.6694	283.31	-44.1093	266.526	-9.72234	247.588	-19.952	245.526	-25.6833	236.418	-43.0167	273.963	-27.0528	276.705	-8.19174	231.796
505228	-39.8177	283.538	-44.3228	266.642	-9.9008	247.734	-20.1793	245.494	-25.8868	236.301	-43.2083	274.135	-27.1324	276.947	-8.34699	231.625
505229	-39.966	283.766	-44.5363	266.76	-10.0794	247.88	-20.4066	245.462	-26.09	236.183	-43.3999	274.308	-27.2119	277.189	-8.50188	231.454
505230	-40.1141	283.995	-44.7498	266.877	-10.2583	248.026	-20.6339	245.429	-26.293	236.064	-43.5915	274.482	-27.2914	277.431	-8.65641	231.283
505231	-40.2621	284.224	-44.9633	266.995	-10.4373	248.172	-20.8611	245.395	-26.4956	235.944	-43.783	274.657	-27.3709	277.673	-8.81056	231.111
505232	-40.4098	284.454	-45.1769	267.114	-10.6165	248.317	-21.0882	245.361	-26.698	235.823	-43.9745	274.832	-27.4503	277.915	-8.96434	230.939
505233	-40.5575	284.685	-45.3905	267.232	-10.7959	248.463	-21.3153	245.327	-26.9001	235.702	-44.1659	275.007	-27.5296	278.158	-9.11774	230.766
505234	-40.705	284.916	-45.6041	267.351	-10.9754	248.608	-21.5423	245.292	-27.1019	235.579	-44.3573	275.184	-27.6089	278.401	-9.27077	230.593
505235	-40.8523	285.148	-45.8177	267.471	-11.1551	248.753	-21.7692	245.256	-27.3034	235.456	-44.5486	275.361	-27.6882	278.644	-9.42342	230.419
505236	-40.9995	285.381	-46.0314	267.591	-11.3351	248.898	-21.9961	245.22	-27.5046	235.332	-44.7398	275.539	-27.7674	278.887	-9.57568	230.246
505237	-41.1465	285.614	-46.245	267.711	-11.5151	249.043	-22.2229	245.184	-27.7055	235.208	-44.931	275.717	-27.8466	279.13	-9.72757	230.071
505238	-41.2934	285.849	-46.4587	267.832	-11.6954	249.188	-22.4496	245.146	-27.9061	235.082	-45.1222	275.897	-27.9257	279.374	-9.87906	229.897
505239	-41.44	286.083	-46.6724	267.952	-11.8758	249.332	-22.6763	245.109	-28.1064	234.955	-45.3133	276.077	-28.0047	279.617	-10.0302	229.721
505240	-41.5865	286.319	-46.8861	268.074	-12.0564	249.477	-22.9029	245.07	-28.3064	234.828	-45.5043	276.258	-28.0837	279.861	-10.1809	229.546
505241	-41.7329	286.555	-47.0999	268.196	-12.2372	249.621	-23.1294	245.032	-28.506	234.7	-45.6952	276.439	-28.1626	280.105	-10.3312	229.37
505242	-41.879	286.792	-47.3136	268.318	-12.4182	249.766	-23.3559	244.992	-28.7054	234.571	-45.8861	276.621	-28.2415	280.35	-10.4811	229.194
505243	-42.025	287.03	-47.5274	268.441	-12.5993	249.91	-23.5823	244.952	-28.9044	234.441	-46.0769	276.805	-28.3203	280.594	-10.6306	229.017
505244	-42.1707	287.269	-47.7411	268.564	-12.7806	250.054	-23.8086	244.912	-29.1031	234.31	-46.2677	276.988	-28.399	280.839	-10.7798	228.839
505245	-42.3163	287.508	-47.9549	268.688	-12.962	250.197	-24.0348	244.871	-29.3015	234.178	-46.4583	277.173	-28.4777	281.084	-10.9285	228.662
505246	-42.4617	287.748	-48.1687	268.812	-13.1436	250.341	-24.261	244.829	-29.4995	234.045	-46.6489	277.358	-28.5563	281.329	-11.0768	228.483
505247	-42.6069	287.989	-48.3825	268.937	-13.3254	250.485	-24.4871	244.787	-29.6972	233.911	-46.8394	277.545	-28.6349	281.575	-11.2247	228.305
505248	-42.7519	288.231	-48.5963	269.062	-13.5073	250.628	-24.7131	244.744	-29.8946	233.777	-47.0298	277.732	-28.7133	281.82	-11.3722	228.126
505249	-42.8967	288.473	-48.8102	269.187	-13.6894	250.772	-24.939	244.701	-30.0916	233.642	-47.2202	277.92	-28.7917	282.066	-11.5193	227.946
505250	-43.0413	288.717	-49.024	269.313	-13.8717	250.915	-25.1648	244.657	-30.2883	233.505	-47.4104	278.109	-28.8701	282.312	-11.666	227.766
505251	-43.1857	288.961	-49.2378	269.44	-14.0541	251.058	-25.3906	244.612	-30.4846	233.368	-47.6006	278.298	-28.9483	282.558	-11.8122	227.586
505252	-43.3299	289.206	-49.4517	269.567	-14.2366	251.202	-25.6163	244.567	-30.6806	233.229	-47.7907	278.489	-29.0265	282.805	-11.958	227.405
505253	-43.4738	289.451	-49.6655	269.695	-14.4194	251.345	-25.8419	244.521	-30.8763	233.09	-47.9806	278.681	-29.1046	283.051	-12.1034	227.224
505254	-43.6176	289.698	-49.8793	269.823	-14.6022	251.488	-26.0674	244.475	-31.0715	232.95	-48.1705	278.873	-29.1827	283.298	-12.2484	227.042
505255	-43.7611	289.945	-50.0932	269.952	-14.7853	251.63	-26.2928	244.428	-31.2665	232.809	-48.3603	279.067	-29.2606	283.546	-12.393	226.86
505256	-43.9044	290.193	-50.307	270.081	-14.9684	251.773	-26.5181	244.38	-31.461	232.666	-48.55	279.261	-29.3385	283.793	-12.5371	226.677
505257	-44.0474	290.442	-50.5209	270.211	-15.1518	251.916	-26.7433	244.332	-31.6552	232.523	-48.7395	279.456	-29.4163	284.04	-12.6808	226.494
505258	-44.1903	290.692	-50.7347	270.342	-15.3353	252.058	-26.9685	244.283	-31.849	232.379	-48.929	279.652	-29.494	284.288	-12.824	226.31
505259	-44.3329	290.943	-50.9485	270.473	-15.5189	252.201	-27.1935	244.233	-32.0424	232.234	-49.1183	279.85	-29.5716	284.536	-12.9668	226.126
505260	-44.4752	291.195	-51.1624	270.605	-15.7027	252.343	-27.4185	244.183	-32.2355	232.088	-49.3076	280.048	-29.6491	284.784	-13.1092	225.941
505261	-44.6173	291.447	-51.3762	270.738	-15.8866	252.486	-27.6433	244.132	-32.4282	231.94	-49.4967	280.247	-29.7266	285.033	-13.2511	225.756
505262	-44.7592	291.701	-51.59	270.871	-16.0706	252.628	-27.8681	244.081	-32.6204	231.792	-49.6857	280.448	-29.8039	285.282	-13.3926	225.571
505263	-44.9008	291.955	-51.8039	271.004	-16.2549	252.77	-28.0928	244.029	-32.8123	231.643	-49.8746	280.649	-29.8812	285.531	-13.5336	225.385
505264	-45.0422	292.21	-52.0177	271.139	-16.4392	252.912	-28.3173	243.976	-33.0038	231.493	-50.0634	280.852	-29.9584	285.78	-13.6742	225.199
505265	-45.1833	292.466	-52.2315	271.274	-16.6237	253.054	-28.5418	243.923	-33.1949	231.341	-50.252	281.055	-30.0354	286.029	-13.8144	225.012
505266	-45.3242	292.724	-52.4453	271.41	-16.8083	253.196	-28.7661	243.869	-33.3856	231.189	-50.4405	281.26	-30.1124	286.279	-13.954	224.824
505267	-45.4647	292.982	-52.659	271.546	-16.9931	253.339	-28.9904	243.814	-33.5758	231.036	-50.6288	281.466	-30.1893	286.529	-14.0932	224.637
505268	-45.605	293.241	-52.8728	271.683	-17.178	253.48	-29.2145	243.758	-33.7657	230.881	-50.8171	281.673	-30.2661	286.779	-14.232	224.448
505269	-45.7451	293.5	-53.0865	271.822	-17.363	253.622	-29.4386	243.702	-33.9551	230.725	-51.0052	281.881	-30.3427	287.029	-14.3703	224.26
505270	-45.8849	293.761	-53.3002	271.96	-17.5482	253.764	-29.6625	243.645	-34.1442	230.569	-51.1931	282.09	-30.4193	287.28	-14.5081	224.07
505271	-46.0243	294.023	-53.514	272.1	-17.7335	253.906	-29.8863	243.588	-34.3327	230.411	-51.3809	282.3	-30.4958	287.531	-14.6454	223.88
505272	-46.1636	294.286	-53.7277	272.24	-17.9189	254.048	-30.11	243.529	-34.5209	230.252	-51.5685	282.512	-30.5722	287.781	-14.7823	223.69
505273	-46.3025	294.55	-53.9413	272.381	-18.1045	254.189	-30.3336	243.47	-34.7086	230.092	-51.756	282.725	-30.6484	288.033	-14.9187	223.5
505274	-46.4411	294.815	-54.155	272.523	-18.2902	254.331	-30.5571	243.411	-34.8959	229.931	-51.9434	282.939	-30.7246	288.284	-15.0546	223.308
505275	-46.5794	295.08	-54.3686	272.666	-18.4761	254.472	-30.7805	243.35	-35.0828	229.768	-52.1305	283.155	-30.8006	288.536	-15.1901	223.117
505276	-46.7174	295.347	-54.5822	272.81	-18.662	254.614	-31.0037	243.289	-35.2692	229.605	-52.3175	283.371	-30.8765	288.788	-15.325	222.924
505277	-46.8551	295.615	-54.7958	272.954	-18.8481	254.756	-31.2268	243.227	-35.4551	229.44	-52.5044	283.589	-30.9523	289.041	-15.4595	222.732
505278	-46.9926	295.884	-55.0093	273.099	-19.0343	254.897	-31.4498	243.165	-35.6406	229.274	-52.691	283.809	-31.0281	289.293	-15.5935	222.538
505279	-47.1296	296.154	-55.2228	273.246	-19.2206	255.039	-31.6727	243.101	-35.8256	229.108	-52.8775	284.029	-31.1036	289.546	-15.727	222.345
505280	-47.2664	296.425	-55.4363	273.393	-19.4071	255.18	-31.8955	243.037	-36.0102	228.94	-53.0638	284.251	-31.1791	289.799	-15.8599	222.151
505281	-47.4029	296.697	-55.6498	273.541	-19.5937	255.322	-32.1181	242.972	-36.1942	228.77	-53.2499	284.475	-31.2544	290.052	-15.9924	221.956
505282	-47.539	296.969	-55.8632	273.69	-19.7804	255.463	-32.3406	242.906	-36.3779	228.6	-53.4359	284.7	-31.3297	290.306	-16.1244	221.761
505283	-47.6748	297.244	-56.0766	273.841	-19.9672	255.605	-32.5629	242.84	-36.561	228.428	-53.6216	284.926	-31.4048	290.559	-16.2559	221.565
505284	-47.8103	297.519	-56.2899	273.992	-20.1541	255.746	-32.7852	242.773	-36.7436	228.255	-53.8072	285.154	-31.4797	290.813	-16.3869	221.369
505285	-47.9454	297.795	-56.5032	274.144	-20.3412	255.887	-33.0073	242.704	-36.9257	228.081	-53.9925	285.383	-31.5546	291.068	-16.5174	221.173
505286	-48.0802	298.072	-56.7165	274.297	-20.5283	256.029	-33.2292	242.636	-37.1074	227.906	-54.1777	285.613	-31.6293	291.322	-16.6473	220.975
505287	-48.2146	298.351	-56.9297	274.451	-20.7156	256.17	-33.451	242.566	-37.2885	227.729	-54.3626	285.846	-31.7039	291.577	-16.7768	220.778
505288	-48.3487	298.63	-57.1429	274.607	-20.903	256.312	-33.6727	242.495	-37.4691	227.551	-54.5473	286.079	-31.7784	291.832	-16.9057	220.579
505289	-48.4824	298.911	-57.356	274.763	-21.0905	256.453	-33.8942	242.424	-37.6493	227.372	-54.7318	286.315	-31.8527	292.087	-17.0341	220.381
505290	-48.6158	299.193	-57.5691	274.921	-21.2782	256.594	-34.1156	242.352	-37.8289	227.192	-54.9161	286.552	-31.9269	292.343	-17.162	220.182
505291	-48.7488	299.476	-57.7821	275.079	-21.4659	256.736	-34.3369	242.279	-38.0079	227.01	-55.1001	286.79	-32.0009	292.599	-17.2894	219.982
505292	-48.8814	299.76	-57.9951	275.24	-21.6537	256.877	-34.558	242.205	-38.1865	226.827	-55.284	287.031	-32.0749	292.855	-17.4162	219.782
505293	-49.0137	300.045	-58.208	275.401	-21.8417	257.019	-34.7789	242.13	-38.3645	226.643	-55.4676	287.272	-32.1486	293.111	-17.5425	219.581
505294	-49.1456	300.332	-58.4209	275.563	-22.0297	257.16	-34.9997	242.055	-38.5419	226.458	-55.6509	287.516	-32.2223	293.368	-17.6683	219.38
505295	-49.277	300.619	-58.6337	275.727	-22.2179	257.302	-35.2203	241.978	-38.7189	226.271	-55.834	287.761	-32.2958	293.625	-17.7935	219.178
505296	-49.4081	300.908	-58.8465	275.892	-22.4062	257.443	-35.4408	241.901	-38.8952	226.083	-56.0168	288.008	-32.3691	293.882	-17.9182	218.976
505297	-49.5388	301.198	-59.0591	276.058	-22.5946	257.585	-35.6611	241.823	-39.071	225.893	-56.1994	288.257	-32.4423	294.139	-18.0423	218.773
505298	-49.6691	301.489	-59.2718	276.226	-22.783	257.727	-35.8813	241.744	-39.2463	225.703	-56.3817	288.508	-32.5154	294.397	-18.1659	218.57
505299	-49.799	301.782	-59.4843	276.395	-22.9716	257.868	-36.1013	241.664	-39.4209	225.511	-56.5638	288.76	-32.5883	294.655	-18.289	218.366
505300	-49.9285	302.075	-59.6968	276.565	-23.1603	258.01	-36.3211	241.583	-39.595	225.317	-56.7456	289.015	-32.6611	294.913	-18.4115	218.162
505301	-50.0575	302.37	-59.9092	276.737	-23.3491	258.152	-36.5407	241.501	-39.7685	225.122	-56.9271	289.271	-32.7337	295.172	-18.5334	217.957
505302	-50.1862	302.666	-60.1215	276.911	-23.5379	258.293	-36.7602	241.418	-39.9415	224.926	-57.1083	289.529	-32.8061	295.43	-18.6548	217.752
505303	-50.3144	302.964	-60.3338	277.085	-23.7269	258.435	-36.9795	241.334	-40.1138	224.728	-57.2893	289.789	-32.8784	295.689	-18.7756	217.546
505304	-50.4422	303.262	-60.5459	277.262	-23.916	258.577	-37.1987	241.249	-40.2855	224.53	-57.4699	290.051	-32.9506	295.949	-18.8959	217.34
505305	-50.5695	303.562	-60.758	277.44	-24.1051	258.719	-37.4176	241.163	-40.4566	224.329	-57.6502	290.315	-33.0226	296.208	-19.0156	217.133
505306	-50.6964	303.863	-60.97	277.619	-24.2944	258.861	-37.6364	241.077	-40.6271	224.127	-57.8302	290.582	-33.0944	296.468	-19.1347	216.926
505307	-50.8229	304.166	-61.182	277.801	-24.4837	259.003	-37.855	240.989	-40.797	223.924	-58.01	290.85	-33.166	296.728	-19.2533	216.718
505308	-50.9489	304.469	-61.3938	277.983	-24.6732	259.145	-38.0734	240.9	-40.9663	223.719	-58.1893	291.12	-33.2375	296.989	-19.3712	216.51
505309	-51.0744	304.774	-61.6055	278.168	-24.8627	259.288	-38.2916	240.811	-41.1349	223.513	-58.3684	291.393	-33.3089	297.249	-19.4886	216.301
505310	-51.1995	305.081	-61.8171	278.355	-25.0523	259.43	-38.5096	240.72	-41.3029	223.306	-58.5471	291.667	-33.38	297.51	-19.6054	216.091
505311	-51.3241	305.388	-62.0286	278.543	-25.242	259.572	-38.7274	240.628	-41.4702	223.097	-58.7255	291.944	-33.451	297.772	-19.7217	215.881
505312	-51.4483	305.697	-62.2401	278.733	-25.4318	259.714	-38.945	240.535	-41.6369	222.886	-58.9035	292.223	-33.5219	298.033	-19.8373	215.671
505313	-51.5719	306.008	-62.4514	278.925	-25.6217	259.857	-39.1625	240.441	-41.8029	222.674	-59.0812	292.505	-33.5925	298.295	-19.9523	215.46
505314	-51.6951	306.319	-62.6626	279.119	-25.8117	260	-39.3797	240.346	-41.9683	222.461	-59.2585	292.788	-33.663	298.557	-20.0668	215.248
505315	-51.8178	306.632	-62.8737	279.315	-26.0017	260.142	-39.5967	240.25	-42.133	222.246	-59.4355	293.075	-33.7333	298.819	-20.1807	215.036
505316	-51.9399	306.947	-63.0846	279.512	-26.1918	260.285	-39.8135	240.153	-42.297	222.03	-59.612	293.363	-33.8034	299.082	-20.2939	214.824
505317	-52.0616	307.262	-63.2955	279.712	-26.382	260.428	-40.0301	240.055	-42.4603	221.812	-59.7882	293.654	-33.8734	299.345	-20.4066	214.611
505318	-52.1828	307.58	-63.5062	279.915	-26.5723	260.571	-40.2465	239.956	-42.6229	221.592	-59.964	293.948	-33.9431	299.608	-20.5186	214.397
505319	-52.3034	307.898	-63.7168	280.119	-26.7627	260.714	-40.4627	239.855	-42.7848	221.371	-60.1394	294.243	-34.0127	299.872	-20.6301	214.183
505320	-52.4235	308.218	-63.9272	280.325	-26.9531	260.857	-40.6786	239.753	-42.946	221.149	-60.3144	294.542	-34.0821	300.135	-20.7409	213.969
505321	-52.5431	308.539	-64.1375	280.534	-27.1437	261.001	-40.8943	239.651	-43.1065	220.925	-60.489	294.843	-34.1513	300.4	-20.8511	213.753
505322	-52.6622	308.862	-64.3477	280.745	-27.3343	261.144	-41.1098	239.547	-43.2663	220.699	-60.6631	295.147	-34.2204	300.664	-20.9607	213.538
505323	-52.7807	309.186	-64.5577	280.959	-27.5249	261.288	-41.3251	239.441	-43.4253	220.472	-60.8368	295.453	-34.2892	300.929	-21.0697	213.322
505324	-52.8987	309.512	-64.7676	281.175	-27.7157	261.431	-41.5401	239.335	-43.5836	220.243	-61.01	295.762	-34.3579	301.194	-21.178	213.105
505325	-53.0161	309.839	-64.9773	281.394	-27.9065	261.575	-41.7549	239.228	-43.7411	220.013	-61.1829	296.074	-34.4263	301.459	-21.2857	212.888
505326	-53.133	310.167	-65.1869	281.615	-28.0974	261.719	-41.9694	239.119	-43.8979	219.781	-61.3552	296.389	-34.4946	301.724	-21.3928	212.67
505327	-53.2493	310.497	-65.3962	281.838	-28.2883	261.863	-42.1837	239.009	-44.0539	219.547	-61.5271	296.707	-34.5627	301.99	-21.4993	212.452
505328	-53.365	310.828	-65.6054	282.065	-28.4794	262.007	-42.3978	238.898	-44.2092	219.312	-61.6985	297.027	-34.6305	302.256	-21.6051	212.233
505329	-53.4802	311.161	-65.8145	282.294	-28.6704	262.152	-42.6116	238.785	-44.3636	219.075	-61.8694	297.351	-34.6982	302.523	-21.7103	212.014
505330	-53.5947	311.495	-66.0233	282.526	-28.8616	262.296	-42.8251	238.671	-44.5173	218.837	-62.0398	297.677	-34.7657	302.789	-21.8148	211.794
505331	-53.7087	311.831	-66.232	282.761	-29.0528	262.441	-43.0384	238.556	-44.6702	218.597	-62.2097	298.007	-34.833	303.056	-21.9187	211.574
505332	-53.8221	312.168	-66.4404	283	-29.2441	262.586	-43.2514	238.44	-44.8223	218.355	-62.379	298.339	-34.9	303.324	-22.0219	211.353
505333	-53.9348	312.507	-66.6487	283.241	-29.4355	262.731	-43.4642	238.322	-44.9736	218.112	-62.5479	298.675	-34.9669	303.591	-22.1245	211.132
505334	-54.047	312.847	-66.8568	283.485	-29.6269	262.876	-43.6767	238.203	-45.124	217.867	-62.7161	299.014	-35.0335	303.859	-22.2264	210.91
505335	-54.1585	313.189	-67.0646	283.733	-29.8184	263.021	-43.8889	238.083	-45.2737	217.62	-62.8839	299.356	-35.1	304.127	-22.3277	210.687
505336	-54.2695	313.532	-67.2722	283.984	-30.0099	263.167	-44.1008	237.961	-45.4225	217.372	-63.0511	299.701	-35.1662	304.396	-22.4283	210.465
505337	-54.3798	313.877	-67.4796	284.238	-30.2015	263.313	-44.3124	237.838	-45.5704	217.122	-63.2177	300.05	-35.2323	304.664	-22.5283	210.241
505338	-54.4894	314.224	-67.6868	284.496	-30.3931	263.458	-44.5238	237.713	-45.7175	216.87	-63.3837	300.402	-35.2981	304.933	-22.6276	210.017
505339	-54.5984	314.571	-67.8937	284.758	-30.5849	263.604	-44.7349	237.587	-45.8638	216.617	-63.5491	300.757	-35.3637	305.203	-22.7262	209.793
505340	-54.7068	314.921	-68.1004	285.023	-30.7766	263.751	-44.9456	237.459	-46.0091	216.362	-63.7139	301.117	-35.429	305.473	-22.8241	209.568
505341	-54.8145	315.272	-68.3068	285.292	-30.9684	263.897	-45.1561	237.331	-46.1536	216.105	-63.8781	301.479	-35.4942	305.743	-22.9214	209.343
505342	-54.9215	315.624	-68.5129	285.565	-31.1603	264.044	-45.3663	237.2	-46.2972	215.847	-64.0416	301.845	-35.5591	306.013	-23.018	209.117
505343	-55.0279	315.978	-68.7188	285.842	-31.3522	264.191	-45.5761	237.068	-46.4399	215.587	-64.2045	302.215	-35.6238	306.283	-23.1139	208.89
505344	-55.1335	316.334	-68.9244	286.124	-31.5442	264.338	-45.7856	236.935	-46.5817	215.325	-64.3667	302.589	-35.6883	306.554	-23.2091	208.663
505345	-55.2385	316.691	-69.1296	286.409	-31.7362	264.485	-45.9949	236.8	-46.7226	215.061	-64.5282	302.966	-35.7526	306.825	-23.3036	208.436
505346	-55.3428	317.049	-69.3346	286.699	-31.9283	264.632	-46.2037	236.663	-46.8625	214.796	-64.6891	303.348	-35.8167	307.097	-23.3975	208.208
505347	-55.4464	317.41	-69.5393	286.994	-32.1204	264.78	-46.4123	236.525	-47.0015	214.529	-64.8492	303.733	-35.8805	307.368	-23.4906	207.98
505348	-55.5493	317.771	-69.7436	287.293	-32.3125	264.928	-46.6206	236.386	-47.1396	214.26	-65.0087	304.122	-35.944	307.64	-23.5831	207.751
505349	-55.6515	318.135	-69.9476	287.597	-32.5047	265.076	-46.8284	236.245	-47.2767	213.989	-65.1673	304.515	-36.0074	307.913	-23.6748	207.521
505350	-55.753	318.5	-70.1513	287.906	-32.697	265.225	-47.036	236.102	-47.4129	213.717	-65.3253	304.912	-36.0705	308.185	-23.7659	207.291
505351	-55.8537	318.866	-70.3546	288.22	-32.8893	265.373	-47.2432	235.957	-47.5481	213.443	-65.4824	305.313	-36.1334	308.459	-23.8562	207.061
505352	-55.9537	319.235	-70.5576	288.539	-33.0816	265.522	-47.45	235.811	-47.6823	213.167	-65.6388	305.718	-36.196	308.732	-23.9458	206.83
505353	-56.0529	319.604	-70.7601	288.864	-33.274	265.671	-47.6565	235.663	-47.8156	212.889	-65.7944	306.128	-36.2584	309.005	-24.0347	206.599
505354	-56.1514	319.976	-70.9623	289.194	-33.4664	265.821	-47.8626	235.514	-47.9478	212.61	-65.9492	306.542	-36.3206	309.279	-24.1229	206.367
505355	-56.2492	320.349	-71.164	289.53	-33.6588	265.971	-48.0684	235.363	-48.079	212.329	-66.1031	306.96	-36.3825	309.553	-24.2104	206.135
505356	-56.3461	320.723	-71.3654	289.872	-33.8513	266.121	-48.2738	235.209	-48.2092	212.046	-66.2562	307.383	-36.4442	309.828	-24.2972	205.902
505357	-56.4423	321.099	-71.5662	290.22	-34.0438	266.271	-48.4787	235.055	-48.3384	211.761	-66.4085	307.81	-36.5056	310.103	-24.3832	205.668
505358	-56.5377	321.477	-71.7667	290.574	-34.2363	266.421	-48.6833	234.898	-48.4665	211.475	-66.5598	308.242	-36.5668	310.378	-24.4686	205.435
505359	-56.6324	321.856	-71.9667	290.935	-34.4289	266.572	-48.8875	234.74	-48.5936	211.186	-66.7103	308.678	-36.6277	310.653	-24.5531	205.2
505360	-56.7262	322.237	-72.1661	291.302	-34.6215	266.723	-49.0913	234.579	-48.7197	210.897	-66.8598	309.12	-36.6884	310.929	-24.637	204.966
505361	-56.8192	322.62	-72.3651	291.676	-34.8141	266.875	-49.2947	234.417	-48.8447	210.605	-67.0084	309.565	-36.7488	311.205	-24.7201	204.73
505362	-56.9115	323.004	-72.5636	292.058	-35.0068	267.026	-49.4977	234.254	-48.9686	210.311	-67.156	310.016	-36.809	311.481	-24.8025	204.495
505363	-57.0028	323.389	-72.7615	292.446	-35.1995	267.178	-49.7003	234.088	-49.0914	210.016	-67.3027	310.472	-36.8689	311.758	-24.8841	204.259
505364	-57.0934	323.777	-72.9589	292.842	-35.3922	267.331	-49.9024	233.92	-49.2131	209.719	-67.4484	310.932	-36.9285	312.034	-24.965	204.022
505365	-57.1832	324.166	-73.1556	293.247	-35.5849	267.483	-50.1041	233.75	-49.3338	209.42	-67.593	311.397	-36.9879	312.312	-25.0451	203.785
505366	-57.2721	324.556	-73.3518	293.659	-35.7777	267.636	-50.3054	233.578	-49.4533	209.119	-67.7366	311.868	-37.0471	312.589	-25.1245	203.547
505367	-57.3601	324.948	-73.5474	294.079	-35.9705	267.789	-50.5062	233.405	-49.5716	208.816	-67.8791	312.344	-37.1059	312.867	-25.2032	203.309
505368	-57.4473	325.342	-73.7423	294.508	-36.1633	267.943	-50.7066	233.229	-49.6889	208.512	-68.0206	312.824	-37.1645	313.145	-25.2811	203.071
505369	-57.5336	325.737	-73.9365	294.946	-36.3561	268.097	-50.9064	233.051	-49.805	208.206	-68.161	313.31	-37.2229	313.423	-25.3582	202.832
505370	-57.6191	326.134	-74.1301	295.394	-36.5489	268.251	-51.1059	232.871	-49.92	207.898	-68.3002	313.802	-37.281	313.702	-25.4346	202.593
505371	-57.7037	326.533	-74.3229	295.85	-36.7418	268.406	-51.3048	232.689	-50.0337	207.589	-68.4383	314.298	-37.3388	313.981	-25.5102	202.353
505372	-57.7874	326.933	-74.515	296.317	-36.9347	268.561	-51.5033	232.505	-50.1463	207.277	-68.5752	314.8	-37.3963	314.26	-25.585	202.113
505373	-57.8702	327.334	-74.7063	296.793	-37.1275	268.716	-51.7013	232.318	-50.2578	206.964	-68.711	315.308	-37.4536	314.54	-25.6591	201.872
505374	-57.952	327.738	-74.8967	297.28	-37.3204	268.872	-51.8987	232.13	-50.368	206.649	-68.8455	315.821	-37.5106	314.82	-25.7324	201.631
505375	-58.033	328.142	-75.0864	297.778	-37.5133	269.028	-52.0957	231.939	-50.477	206.333	-68.9788	316.34	-37.5673	315.1	-25.8049	201.389
505376	-58.1131	328.549	-75.2751	298.288	-37.7062	269.185	-52.2922	231.746	-50.5849	206.014	-69.1108	316.864	-37.6237	315.381	-25.8766	201.147
505377	-58.1922	328.957	-75.463	298.808	-37.8992	269.342	-52.4881	231.551	-50.6915	205.694	-69.2415	317.394	-37.6799	315.662	-25.9476	200.905
505378	-58.2704	329.366	-75.6499	299.341	-38.0921	269.499	-52.6835	231.353	-50.7968	205.372	-69.3709	317.93	-37.7357	315.943	-26.0178	200.662
505379	-58.3477	329.777	-75.8358	299.886	-38.285	269.657	-52.8783	231.153	-50.9009	205.048	-69.499	318.471	-37.7913	316.224	-26.0872	200.418
505380	-58.424	330.19	-76.0207	300.444	-38.4779	269.815	-53.0727	230.951	-51.0038	204.723	-69.6257	319.019	-37.8466	316.506	-26.1558	200.175
505381	-58.4994	330.604	-76.2045	301.015	-38.6709	269.974	-53.2664	230.746	-51.1054	204.396	-69.751	319.572	-37.9016	316.788	-26.2236	199.931
505382	-58.5738	331.019	-76.3872	301.601	-38.8638	270.133	-53.4596	230.539	-51.2057	204.067	-69.8749	320.131	-37.9564	317.07	-26.2906	199.686
505383	-58.6473	331.437	-76.5688	302.2	-39.0568	270.292	-53.6522	230.33	-51.3047	203.737	-69.9973	320.697	-38.0108	317.353	-26.3568	199.441
505384	-58.7197	331.855	-76.7491	302.814	-39.2497	270.452	-53.8442	230.118	-51.4025	203.405	-70.1183	321.268	-38.065	317.636	-26.4223	199.196
505385	-58.7912	332.275	-76.9282	303.443	-39.4426	270.612	-54.0356	229.903	-51.4989	203.071	-70.2377	321.845	-38.1188	317.919	-26.4869	198.95
505386	-58.8617	332.697	-77.106	304.087	-39.6355	270.773	-54.2264	229.686	-51.594	202.735	-70.3556	322.428	-38.1724	318.203	-26.5507	198.704
505387	-58.9312	333.12	-77.2824	304.748	-39.8284	270.934	-54.4166	229.466	-51.6878	202.398	-70.472	323.018	-38.2257	318.486	-26.6137	198.457
505388	-58.9996	333.544	-77.4574	305.426	-40.0213	271.096	-54.6062	229.244	-51.7803	202.059	-70.5868	323.613	-38.2786	318.771	-26.676	198.21
505389	-59.0671	333.97	-77.6309	306.122	-40.2142	271.258	-54.7951	229.019	-51.8714	201.719	-70.7	324.215	-38.3313	319.055	-26.7374	197.963
505390	-59.1335	334.398	-77.8029	306.835	-40.4071	271.421	-54.9834	228.791	-51.9612	201.376	-70.8115	324.823	-38.3837	319.34	-26.798	197.715
505391	-59.199	334.827	-77.9732	307.567	-40.6	271.584	-55.171	228.561	-52.0496	201.033	-70.9214	325.437	-38.4358	319.625	-26.8577	197.467
505392	-59.2634	335.257	-78.1419	308.318	-40.7928	271.748	-55.358	228.328	-52.1366	200.688	-71.0295	326.058	-38.4875	319.91	-26.9167	197.219
505393	-59.3267	335.688	-78.3088	309.088	-40.9857	271.912	-55.5442	228.092	-52.2223	200.34	-71.1359	326.684	-38.539	320.196	-26.9748	196.97
505394	-59.389	336.122	-78.4738	309.88	-41.1785	272.077	-55.7298	227.853	-52.3066	199.992	-71.2406	327.317	-38.5902	320.482	-27.0321	196.721
505395	-59.4502	336.556	-78.6369	310.692	-41.3713	272.242	-55.9147	227.612	-52.3894	199.642	-71.3434	327.956	-38.641	320.768	-27.0886	196.471
505396	-59.5104	336.992	-78.7981	311.526	-41.5641	272.408	-56.0989	227.368	-52.4709	199.29	-71.4445	328.601	-38.6915	321.054	-27.1443	196.221
505397	-59.5695	337.429	-78.9571	312.382	-41.7568	272.574	-56.2823	227.12	-52.5509	198.937	-71.5436	329.253	-38.7418	321.341	-27.1991	195.971
505398	-59.6275	337.867	-79.114	313.262	-41.9496	272.741	-56.465	226.87	-52.6295	198.583	-71.6409	329.911	-38.7917	321.628	-27.2531	195.72
505399	-59.6845	338.307	-79.2686	314.165	-42.1422	272.908	-56.647	226.617	-52.7067	198.227	-71.7363	330.574	-38.8413	321.916	-27.3063	195.469
505400	-59.7403	338.748	-79.4208	315.093	-42.3349	273.076	-56.8282	226.36	-52.7824	197.869	-71.8297	331.244	-38.8905	322.203	-27.3586	195.218
505401	-59.7951	339.19	-79.5705	316.046	-42.5276	273.245	-57.0086	226.101	-52.8567	197.51	-71.9211	331.92	-38.9395	322.491	-27.4101	194.966
505402	-59.8487	339.634	-79.7176	317.024	-42.7202	273.414	-57.1882	225.839	-52.9295	197.149	-72.0106	332.602	-38.9881	322.779	-27.4608	194.714
505403	-59.9013	340.078	-79.862	318.029	-42.9128	273.584	-57.367	225.573	-53.0008	196.788	-72.098	333.291	-39.0365	323.068	-27.5106	194.462
505404	-59.9527	340.524	-80.0036	319.062	-43.1053	273.754	-57.545	225.304	-53.0707	196.424	-72.1833	333.985	-39.0845	323.357	-27.5595	194.209
505405	-60.003	340.972	-80.1422	320.121	-43.2978	273.925	-57.7222	225.032	-53.139	196.06	-72.2665	334.685	-39.1321	323.646	-27.6076	193.956
505406	-60.0522	341.42	-80.2778	321.209	-43.4903	274.097	-57.8986	224.757	-53.2059	195.694	-72.3476	335.39	-39.1795	323.935	-27.6549	193.703
505407	-60.1003	341.87	-80.4101	322.326	-43.6827	274.269	-58.074	224.478	-53.2712	195.327	-72.4265	336.102	-39.2265	324.225	-27.7014	193.449
505408	-60.1472	342.32	-80.5391	323.471	-43.8751	274.442	-58.2486	224.197	-53.3351	194.958	-72.5033	336.819	-39.2732	324.515	-27.7469	193.195
505409	-60.1929	342.772	-80.6647	324.647	-44.0674	274.615	-58.4224	223.911	-53.3974	194.588	-72.5778	337.542	-39.3196	324.805	-27.7916	192.941
505410	-60.2375	343.225	-80.7866	325.852	-44.2597	274.789	-58.5952	223.623	-53.4582	194.217	-72.6501	338.27	-39.3656	325.095	-27.8355	192.687
505411	-60.281	343.679	-80.9047	327.087	-44.4519	274.964	-58.7671	223.331	-53.5174	193.845	-72.7201	339.004	-39.4113	325.386	-27.8785	192.432
505412	-60.3233	344.134	-81.0189	328.353	-44.6441	275.14	-58.938	223.035	-53.5752	193.471	-72.7878	339.743	-39.4567	325.677	-27.9206	192.177
505413	-60.3644	344.589	-81.1291	329.65	-44.8362	275.316	-59.1081	222.736	-53.6313	193.096	-72.8531	340.487	-39.5017	325.969	-27.9619	191.922
505414	-60.4044	345.046	-81.235	330.977	-45.0283	275.493	-59.2771	222.434	-53.6859	192.721	-72.9161	341.237	-39.5464	326.26	-28.0023	191.666
505415	-60.4432	345.504	-81.3366	332.334	-45.2203	275.671	-59.4452	222.128	-53.739	192.344	-72.9767	341.991	-39.5907	326.552	-28.0419	191.41
505416	-60.4808	345.963	-81.4336	333.721	-45.4123	275.849	-59.6123	221.818	-53.7904	191.966	-73.0349	342.75	-39.6347	326.844	-28.0806	191.154
505417	-60.5172	346.423	-81.5259	335.138	-45.6042	276.029	-59.7784	221.505	-53.8403	191.586	-73.0907	343.513	-39.6784	327.137	-28.1184	190.897
505418	-60.5525	346.884	-81.6133	336.584	-45.796	276.208	-59.9434	221.187	-53.8886	191.206	-73.144	344.281	-39.7217	327.429	-28.1553	190.641
505419	-60.5865	347.345	-81.6958	338.058	-45.9878	276.389	-60.1074	220.867	-53.9353	190.825	-73.1948	345.054	-39.7647	327.722	-28.1914	190.384
505420	-60.6193	347.808	-81.7731	339.56	-46.1795	276.571	-60.2703	220.542	-53.9804	190.443	-73.2431	345.83	-39.8073	328.015	-28.2266	190.127
505421	-60.6509	348.271	-81.8451	341.088	-46.3711	276.753	-60.4322	220.214	-54.0239	190.06	-73.2889	346.611	-39.8496	328.309	-28.261	189.869
505422	-60.6814	348.735	-81.9117	342.642	-46.5627	276.936	-60.5929	219.881	-54.0657	189.676	-73.3321	347.395	-39.8915	328.603	-28.2944	189.612
505423	-60.7106	349.2	-81.9727	344.219	-46.7542	277.12	-60.7526	219.545	-54.106	189.291	-73.3728	348.183	-39.9331	328.897	-28.327	189.354
505424	-60.7386	349.665	-82.028	345.818	-46.9456	277.304	-60.9111	219.205	-54.1446	188.905	-73.4108	348.974	-39.9743	329.191	-28.3587	189.096
505425	-60.7653	350.131	-82.0775	347.438	-47.1369	277.49	-61.0684	218.861	-54.1817	188.519	-73.4463	349.768	-40.0152	329.486	-28.3895	188.838
505426	-60.7909	350.598	-82.121	349.076	-47.3281	277.676	-61.2246	218.513	-54.217	188.131	-73.4791	350.566	-40.0557	329.78	-28.4195	188.579
505427	-60.8152	351.065	-82.1585	350.73	-47.5193	277.864	-61.3795	218.161	-54.2508	187.743	-73.5093	351.366	-40.0959	330.075	-28.4485	188.32
505428	-60.8383	351.533	-82.1899	352.399	-47.7104	278.052	-61.5333	217.805	-54.2829	187.355	-73.5368	352.168	-40.1357	330.371	-28.4767	188.061
505429	-60.8601	352.002	-82.2151	354.079	-47.9014	278.241	-61.6858	217.445	-54.3133	186.965	-73.5617	352.973	-40.1752	330.666	-28.504	187.803
505430	-60.8808	352.471	-82.234	355.768	-48.0923	278.431	-61.8371	217.08	-54.3421	186.575	-73.5838	353.781	-40.2142	330.962	-28.5304	187.543
505431	-60.9001	352.941	-82.2467	357.464	-48.2831	278.621	-61.9871	216.712	-54.3693	186.184	-73.6033	354.589	-40.253	331.258	-28.5559	187.284
505432	-60.9183	353.411	-82.253	359.164	-48.4738	278.813	-62.1358	216.339	-54.3948	185.793	-73.6201	355.4	-40.2913	331.555	-28.5805	187.024
505433	-60.9352	353.882	-82.253	0.865023	-48.6644	279.006	-62.2831	215.963	-54.4186	185.401	-73.6342	356.212	-40.3293	331.851	-28.6042	186.764
505434	-60.9508	354.353	-82.2466	2.56494	-48.8549	279.2	-62.4292	215.582	-54.4408	185.008	-73.6455	357.025	-40.367	332.148	-28.6271	186.505
505435	-60.9652	354.824	-82.2339	4.26081	-49.0453	279.394	-62.5739	215.196	-54.4613	184.616	-73.6541	357.839	-40.4042	332.445	-28.649	186.244
505436	-60.9784	355.296	-82.2148	5.95002	-49.2356	279.59	-62.7171	214.806	-54.4801	184.222	-73.66	358.654	-40.4411	332.742	-28.6701	185.984
505437	-60.9903	355.768	-82.1896	7.62999	-49.4258	279.786	-62.8591	214.412	-54.4972	183.829	-73.6632	359.469	-40.4776	333.04	-28.6902	185.724
505438	-61.0009	356.241	-82.1581	9.29823	-49.6158	279.984	-62.9995	214.014	-54.5127	183.435	-73.6636	0.28436	-40.5138	333.338	-28.7095	185.463
505439	-61.0103	356.713	-82.1205	10.9524	-49.8058	280.183	-63.1386	213.612	-54.5265	183.04	-73.6613	1.09956	-40.5496	333.636	-28.7279	185.203
505440	-61.0184	357.186	-82.0769	12.5902	-49.9956	280.382	-63.2761	213.204	-54.5386	182.645	-73.6563	1.91443	-40.585	333.934	-28.7454	184.942
