Minute of Year [min]	Potsdam.Altitude [Deg]	Potsdam.Azimuth [Deg]	Shanghai.Altitude [Deg]	Shanghai.Azimuth [Deg]	Kaxgar.Altitude [Deg]	Kaxgar.Azimuth [Deg]	Singapur.Altitude [Deg]	Singapur.Azimuth [Deg]	Lima.Altitude [Deg]	Lima.Azimuth [Deg]	Denver.Altitude [Deg]	Denver.Azimuth [Deg]	Barrow.Altitude [Deg]	Barrow.Azimuth [Deg]	Melbourne.Altitude [Deg]	Melbourne.Azimuth [Deg]
298080	-18.3931	356.288	-39.6808	359.551	-17.4189	314.776	-63.0253	320.42	-81.9172	332.69	-31.0709	358.174	1.91172	337.79	-70.5112	200.084
298081	-18.4028	356.537	-39.682	359.858	-17.5558	314.978	-63.184	320.807	-82.0267	334.189	-31.0767	358.45	1.88141	338.024	-70.5779	199.404
298082	-18.4118	356.786	-39.6821	0.164793	-17.6922	315.18	-63.3414	321.198	-82.1304	335.728	-31.0816	358.725	1.85141	338.258	-70.6424	198.719
298083	-18.4202	357.034	-39.6811	0.471663	-17.8281	315.383	-63.4975	321.594	-82.228	337.309	-31.0856	359.001	1.82171	338.493	-70.7046	198.031
298084	-18.4279	357.283	-39.6789	0.778516	-17.9635	315.586	-63.6522	321.995	-82.3193	338.929	-31.0886	359.277	1.79232	338.727	-70.7645	197.339
298085	-18.435	357.532	-39.6756	1.08534	-18.0985	315.79	-63.8055	322.401	-82.404	340.587	-31.0907	359.553	1.76323	338.962	-70.8222	196.643
298086	-18.4414	357.781	-39.6711	1.39212	-18.2329	315.994	-63.9574	322.812	-82.4821	342.283	-31.0919	359.828	1.73445	339.196	-70.8776	195.943
298087	-18.4472	358.03	-39.6655	1.69885	-18.3669	316.199	-64.1079	323.227	-82.5531	344.012	-31.0922	0.104064	1.70597	339.431	-70.9306	195.239
298088	-18.4522	358.279	-39.6588	2.00551	-18.5004	316.404	-64.2569	323.648	-82.617	345.774	-31.0916	0.379853	1.6778	339.665	-70.9813	194.532
298089	-18.4566	358.527	-39.6509	2.3121	-18.6333	316.61	-64.4044	324.074	-82.6736	347.565	-31.09	0.655635	1.64994	339.9	-71.0296	193.822
298090	-18.4604	358.776	-39.6419	2.61859	-18.7658	316.817	-64.5504	324.505	-82.7226	349.383	-31.0875	0.931401	1.62239	340.135	-71.0755	193.108
298091	-18.4635	359.025	-39.6317	2.92498	-18.8977	317.024	-64.6949	324.94	-82.7639	351.224	-31.0841	1.20714	1.59515	340.369	-71.119	192.392
298092	-18.4659	359.274	-39.6204	3.23126	-19.0292	317.231	-64.8378	325.381	-82.7975	353.084	-31.0797	1.48286	1.56821	340.604	-71.1601	191.673
298093	-18.4677	359.523	-39.6079	3.53741	-19.1601	317.439	-64.9791	325.828	-82.8231	354.96	-31.0744	1.75854	1.54159	340.839	-71.1988	190.95
298094	-18.4688	359.772	-39.5943	3.84341	-19.2905	317.647	-65.1188	326.279	-82.8407	356.848	-31.0682	2.03418	1.51527	341.073	-71.235	190.226
298095	-18.4692	0.0212043	-39.5795	4.14927	-19.4204	317.856	-65.2569	326.736	-82.8503	358.743	-31.0611	2.30977	1.48927	341.308	-71.2687	189.498
298096	-18.469	0.270199	-39.5636	4.45497	-19.5498	318.066	-65.3932	327.197	-82.8518	0.640158	-31.0531	2.5853	1.46358	341.543	-71.3	188.769
298097	-18.4681	0.519192	-39.5466	4.76049	-19.6786	318.276	-65.5279	327.664	-82.8452	2.53654	-31.0441	2.86077	1.43819	341.778	-71.3287	188.037
298098	-18.4666	0.768179	-39.5285	5.06582	-19.8069	318.487	-65.6609	328.137	-82.8305	4.42719	-31.0342	3.13617	1.41313	342.013	-71.355	187.304
298099	-18.4643	1.01716	-39.5092	5.37095	-19.9347	318.698	-65.7921	328.615	-82.8078	6.30785	-31.0234	3.41149	1.38837	342.248	-71.3787	186.568
298100	-18.4615	1.26613	-39.4887	5.67588	-20.0619	318.91	-65.9214	329.098	-82.7771	8.17437	-31.0117	3.68673	1.36393	342.483	-71.3999	185.831
298101	-18.4579	1.51508	-39.4672	5.98058	-20.1887	319.122	-66.049	329.586	-82.7386	10.0228	-30.999	3.96187	1.3398	342.718	-71.4186	185.093
298102	-18.4537	1.76402	-39.4445	6.28504	-20.3148	319.334	-66.1748	330.079	-82.6924	11.8494	-30.9854	4.23692	1.31598	342.953	-71.4347	184.353
298103	-18.4488	2.01294	-39.4207	6.58926	-20.4404	319.548	-66.2986	330.579	-82.6385	13.6508	-30.9709	4.51187	1.29248	343.188	-71.4483	183.612
298104	-18.4433	2.26183	-39.3957	6.89322	-20.5655	319.762	-66.4206	331.083	-82.5773	15.4238	-30.9555	4.7867	1.26929	343.423	-71.4593	182.87
298105	-18.4371	2.5107	-39.3696	7.19692	-20.6901	319.976	-66.5406	331.592	-82.5088	17.1655	-30.9392	5.06142	1.24642	343.658	-71.4678	182.128
298106	-18.4303	2.75954	-39.3424	7.50033	-20.814	320.191	-66.6587	332.108	-82.4333	18.8734	-30.9219	5.33601	1.22386	343.893	-71.4737	181.385
298107	-18.4228	3.00835	-39.3141	7.80345	-20.9374	320.406	-66.7747	332.628	-82.351	20.5455	-30.9037	5.61048	1.20162	344.128	-71.477	180.642
298108	-18.4146	3.25713	-39.2847	8.10627	-21.0603	320.622	-66.8888	333.154	-82.2621	22.1799	-30.8847	5.8848	1.1797	344.363	-71.4778	179.898
298109	-18.4057	3.50587	-39.2541	8.40877	-21.1826	320.839	-67.0007	333.684	-82.1667	23.775	-30.8647	6.15898	1.15809	344.599	-71.476	179.155
298110	-18.3962	3.75456	-39.2224	8.71095	-21.3043	321.056	-67.1106	334.221	-82.0653	25.3299	-30.8438	6.43301	1.1368	344.834	-71.4716	178.412
298111	-18.3861	4.00322	-39.1896	9.01278	-21.4255	321.274	-67.2184	334.762	-81.9579	26.8435	-30.8219	6.70688	1.11583	345.069	-71.4647	177.669
298112	-18.3753	4.25183	-39.1557	9.31428	-21.5461	321.492	-67.324	335.309	-81.8448	28.3153	-30.7992	6.98059	1.09518	345.304	-71.4552	176.927
298113	-18.3638	4.50039	-39.1207	9.61541	-21.6661	321.711	-67.4275	335.861	-81.7262	29.7451	-30.7755	7.25413	1.07484	345.54	-71.4432	176.185
298114	-18.3516	4.7489	-39.0846	9.91618	-21.7855	321.93	-67.5287	336.418	-81.6025	31.1327	-30.751	7.52749	1.05482	345.775	-71.4286	175.445
298115	-18.3388	4.99735	-39.0474	10.2166	-21.9044	322.15	-67.6278	336.98	-81.4737	32.4782	-30.7255	7.80067	1.03512	346.01	-71.4114	174.706
298116	-18.3254	5.24575	-39.009	10.5166	-22.0226	322.37	-67.7245	337.547	-81.3402	33.7821	-30.6991	8.07366	1.01575	346.246	-71.3917	173.968
298117	-18.3113	5.49409	-38.9696	10.8162	-22.1403	322.591	-67.819	338.119	-81.2021	35.0447	-30.6718	8.34645	0.996687	346.481	-71.3695	173.231
298118	-18.2965	5.74236	-38.9291	11.1153	-22.2574	322.813	-67.9111	338.696	-81.0597	36.2667	-30.6437	8.61904	0.977949	346.717	-71.3448	172.497
298119	-18.281	5.99057	-38.8875	11.4141	-22.3739	323.034	-68.0008	339.278	-80.9131	37.4489	-30.6146	8.89142	0.959531	346.952	-71.3175	171.764
298120	-18.2649	6.23871	-38.8447	11.7124	-22.4898	323.257	-68.0882	339.865	-80.7626	38.592	-30.5846	9.16358	0.941435	347.188	-71.2878	171.033
298121	-18.2482	6.48678	-38.8009	12.0103	-22.6051	323.48	-68.1732	340.457	-80.6084	39.697	-30.5537	9.43553	0.923659	347.423	-71.2555	170.304
298122	-18.2308	6.73477	-38.756	12.3078	-22.7198	323.704	-68.2557	341.053	-80.4506	40.7649	-30.5219	9.70725	0.906205	347.659	-71.2208	169.578
298123	-18.2127	6.98269	-38.71	12.6047	-22.8338	323.928	-68.3358	341.654	-80.2893	41.7966	-30.4892	9.97873	0.889073	347.894	-71.1836	168.854
298124	-18.194	7.23053	-38.663	12.9012	-22.9473	324.153	-68.4134	342.259	-80.1249	42.7933	-30.4556	10.25	0.872263	348.13	-71.144	168.133
298125	-18.1746	7.47828	-38.6148	13.1973	-23.0602	324.378	-68.4884	342.868	-79.9574	43.7559	-30.4211	10.521	0.855775	348.365	-71.1019	167.415
298126	-18.1546	7.72595	-38.5656	13.4928	-23.1724	324.604	-68.5609	343.482	-79.7869	44.6857	-30.3857	10.7917	0.839611	348.601	-71.0574	166.699
298127	-18.1339	7.97354	-38.5153	13.7878	-23.284	324.831	-68.6308	344.101	-79.6137	45.5837	-30.3495	11.0622	0.823769	348.837	-71.0105	165.987
298128	-18.1126	8.22103	-38.464	14.0823	-23.395	325.058	-68.6981	344.723	-79.4378	46.451	-30.3123	11.3324	0.808251	349.072	-70.9613	165.278
298129	-18.0906	8.46842	-38.4116	14.3763	-23.5054	325.285	-68.7628	345.349	-79.2595	47.2886	-30.2742	11.6024	0.793057	349.308	-70.9096	164.573
298130	-18.068	8.71572	-38.3581	14.6698	-23.6151	325.513	-68.8249	345.979	-79.0787	48.0976	-30.2353	11.8721	0.778187	349.544	-70.8557	163.87
298131	-18.0447	8.96293	-38.3035	14.9628	-23.7242	325.742	-68.8842	346.613	-78.8957	48.8791	-30.1955	12.1415	0.763641	349.779	-70.7994	163.172
298132	-18.0207	9.21002	-38.2479	15.2552	-23.8327	325.971	-68.9409	347.25	-78.7105	49.6341	-30.1548	12.4106	0.749419	350.015	-70.7408	162.477
298133	-17.9962	9.45702	-38.1913	15.547	-23.9405	326.201	-68.9949	347.89	-78.5233	50.3635	-30.1132	12.6794	0.735522	350.251	-70.6799	161.787
298134	-17.9709	9.70391	-38.1336	15.8383	-24.0477	326.431	-69.0461	348.534	-78.3341	51.0684	-30.0708	12.9479	0.721951	350.487	-70.6168	161.1
298135	-17.945	9.95069	-38.0748	16.129	-24.1542	326.662	-69.0946	349.181	-78.1431	51.7497	-30.0274	13.2162	0.708704	350.723	-70.5514	160.417
298136	-17.9185	10.1974	-38.0151	16.4191	-24.2601	326.894	-69.1402	349.831	-77.9503	52.4082	-29.9832	13.4841	0.695784	350.958	-70.4838	159.739
298137	-17.8913	10.4439	-37.9542	16.7087	-24.3653	327.126	-69.1831	350.484	-77.7558	53.0449	-29.9381	13.7517	0.683189	351.194	-70.4141	159.064
298138	-17.8635	10.6903	-37.8924	16.9977	-24.4699	327.358	-69.2232	351.14	-77.5596	53.6606	-29.8921	14.0189	0.67092	351.43	-70.3421	158.394
298139	-17.835	10.9367	-37.8295	17.286	-24.5738	327.591	-69.2604	351.798	-77.362	54.2562	-29.8453	14.2859	0.658977	351.666	-70.268	157.729
298140	-17.8059	11.1829	-37.7655	17.5738	-24.677	327.825	-69.2948	352.458	-77.1629	54.8324	-29.7976	14.5525	0.647361	351.902	-70.1918	157.068
298141	-17.7762	11.4289	-37.7006	17.8609	-24.7796	328.059	-69.3264	353.12	-76.9624	55.3899	-29.7491	14.8188	0.636072	352.138	-70.1135	156.412
298142	-17.7458	11.6748	-37.6347	18.1474	-24.8815	328.294	-69.355	353.785	-76.7605	55.9295	-29.6996	15.0847	0.625109	352.374	-70.0332	155.76
298143	-17.7147	11.9207	-37.5677	18.4333	-24.9828	328.529	-69.3808	354.451	-76.5575	56.4519	-29.6493	15.3504	0.614474	352.61	-69.9507	155.113
298144	-17.6831	12.1663	-37.4997	18.7185	-25.0833	328.765	-69.4037	355.119	-76.3531	56.9578	-29.5982	15.6156	0.604166	352.846	-69.8663	154.471
298145	-17.6507	12.4119	-37.4307	19.0031	-25.1832	329.001	-69.4236	355.788	-76.1476	57.4477	-29.5462	15.8805	0.594185	353.082	-69.7799	153.834
298146	-17.6178	12.6573	-37.3607	19.287	-25.2824	329.238	-69.4407	356.459	-75.9411	57.9224	-29.4933	16.145	0.584532	353.318	-69.6915	153.202
298147	-17.5842	12.9025	-37.2897	19.5703	-25.3809	329.475	-69.4548	357.13	-75.7334	58.3823	-29.4396	16.4092	0.575207	353.554	-69.6012	152.574
298148	-17.55	13.1477	-37.2177	19.8529	-25.4788	329.713	-69.466	357.803	-75.5247	58.8281	-29.3851	16.673	0.56621	353.79	-69.5089	151.952
298149	-17.5151	13.3926	-37.1447	20.1348	-25.5759	329.952	-69.4743	358.476	-75.3151	59.2603	-29.3297	16.9364	0.557541	354.026	-69.4148	151.334
298150	-17.4796	13.6375	-37.0707	20.4161	-25.6723	330.191	-69.4797	359.149	-75.1046	59.6794	-29.2734	17.1995	0.549201	354.262	-69.3188	150.722
298151	-17.4435	13.8821	-36.9958	20.6966	-25.7681	330.431	-69.4821	359.823	-74.8931	60.0858	-29.2163	17.4621	0.541189	354.498	-69.2209	150.115
298152	-17.4067	14.1267	-36.9198	20.9765	-25.8631	330.671	-69.4815	0.496609	-74.6808	60.4802	-29.1584	17.7244	0.533506	354.734	-69.1213	149.512
298153	-17.3693	14.371	-36.8429	21.2557	-25.9574	330.911	-69.4781	1.17028	-74.4677	60.8629	-29.0996	17.9863	0.526151	354.97	-69.0198	148.915
298154	-17.3313	14.6152	-36.7651	21.5342	-26.051	331.153	-69.4716	1.84362	-74.2537	61.2343	-29.04	18.2477	0.519126	355.206	-68.9167	148.323
298155	-17.2926	14.8593	-36.6862	21.812	-26.1439	331.394	-69.4623	2.51643	-74.0391	61.5948	-28.9796	18.5088	0.51243	355.442	-68.8117	147.737
298156	-17.2533	15.1032	-36.6064	22.089	-26.2361	331.637	-69.45	3.18852	-73.8237	61.945	-28.9183	18.7695	0.506063	355.678	-68.7051	147.155
298157	-17.2134	15.3469	-36.5256	22.3654	-26.3276	331.88	-69.4348	3.85969	-73.6076	62.285	-28.8562	19.0298	0.500025	355.914	-68.5968	146.578
298158	-17.1729	15.5905	-36.4439	22.641	-26.4184	332.123	-69.4167	4.52976	-73.3909	62.6154	-28.7933	19.2896	0.494317	356.15	-68.4868	146.007
298159	-17.1317	15.8339	-36.3612	22.9159	-26.5084	332.367	-69.3957	5.19854	-73.1735	62.9364	-28.7296	19.549	0.488938	356.386	-68.3752	145.441
298160	-17.0899	16.0771	-36.2776	23.19	-26.5977	332.611	-69.3717	5.86582	-72.9555	63.2484	-28.665	19.808	0.483889	356.622	-68.2621	144.88
298161	-17.0475	16.3202	-36.1931	23.4634	-26.6862	332.856	-69.3449	6.53144	-72.7369	63.5516	-28.5996	20.0666	0.47917	356.859	-68.1473	144.324
298162	-17.0045	16.5631	-36.1076	23.7361	-26.7741	333.101	-69.3152	7.1952	-72.5177	63.8465	-28.5334	20.3248	0.47478	357.095	-68.031	143.773
298163	-16.9608	16.8057	-36.0212	24.008	-26.8612	333.347	-69.2826	7.85693	-72.298	64.1332	-28.4664	20.5825	0.47072	357.331	-67.9131	143.227
298164	-16.9166	17.0483	-35.9338	24.2792	-26.9475	333.594	-69.2472	8.51645	-72.0778	64.4121	-28.3986	20.8398	0.466991	357.567	-67.7938	142.687
298165	-16.8717	17.2906	-35.8456	24.5496	-27.0331	333.841	-69.2089	9.17359	-71.857	64.6834	-28.33	21.0966	0.463591	357.803	-67.6729	142.151
298166	-16.8262	17.5328	-35.7564	24.8193	-27.118	334.088	-69.1678	9.82817	-71.6358	64.9475	-28.2606	21.353	0.460522	358.039	-67.5507	141.62
298167	-16.78	17.7747	-35.6663	25.0882	-27.2021	334.336	-69.1239	10.48	-71.4141	65.2044	-28.1903	21.6089	0.457783	358.276	-67.4269	141.095
298168	-16.7333	18.0165	-35.5753	25.3563	-27.2854	334.585	-69.0772	11.129	-71.1919	65.4545	-28.1193	21.8644	0.455374	358.512	-67.3018	140.575
298169	-16.686	18.2581	-35.4834	25.6237	-27.368	334.834	-69.0278	11.775	-70.9693	65.698	-28.0475	22.1195	0.453295	358.748	-67.1753	140.059
298170	-16.638	18.4995	-35.3906	25.8902	-27.4499	335.083	-68.9755	12.4177	-70.7463	65.9351	-27.9749	22.374	0.451546	358.984	-67.0475	139.548
298171	-16.5894	18.7407	-35.2969	26.156	-27.531	335.333	-68.9206	13.0572	-70.5229	66.166	-27.9015	22.6281	0.450128	359.22	-66.9183	139.043
298172	-16.5403	18.9818	-35.2023	26.421	-27.6113	335.584	-68.8629	13.6931	-70.299	66.3909	-27.8273	22.8818	0.449041	359.456	-66.7878	138.542
298173	-16.4905	19.2226	-35.1068	26.6853	-27.6908	335.835	-68.8026	14.3255	-70.0748	66.61	-27.7524	23.135	0.448283	359.692	-66.656	138.046
298174	-16.4401	19.4632	-35.0104	26.9487	-27.7696	336.087	-68.7396	14.9541	-69.8502	66.8235	-27.6766	23.3877	0.447856	359.929	-66.5229	137.555
298175	-16.3891	19.7036	-34.9132	27.2114	-27.8476	336.339	-68.6739	15.5788	-69.6253	67.0316	-27.6001	23.6399	0.447759	0.164711	-66.3886	137.068
298176	-16.3375	19.9438	-34.8151	27.4732	-27.9248	336.591	-68.6057	16.1996	-69.4	67.2344	-27.5228	23.8917	0.447993	0.400888	-66.2531	136.587
298177	-16.2853	20.1838	-34.7161	27.7343	-28.0012	336.844	-68.5348	16.8162	-69.1744	67.4321	-27.4447	24.1429	0.448557	0.637066	-66.1164	136.11
298178	-16.2325	20.4236	-34.6163	27.9945	-28.0769	337.097	-68.4614	17.4287	-68.9485	67.6248	-27.3659	24.3937	0.449452	0.873242	-65.9785	135.637
298179	-16.1791	20.6632	-34.5156	28.254	-28.1517	337.351	-68.3854	18.0368	-68.7223	67.8127	-27.2863	24.644	0.450677	1.10942	-65.8394	135.17
298180	-16.1252	20.9026	-34.4141	28.5126	-28.2258	337.606	-68.3069	18.6404	-68.4957	67.996	-27.2059	24.8939	0.452232	1.34559	-65.6992	134.707
298181	-16.0706	21.1418	-34.3117	28.7705	-28.2991	337.861	-68.2259	19.2396	-68.2689	68.1748	-27.1248	25.1432	0.454118	1.58176	-65.5579	134.248
298182	-16.0154	21.3807	-34.2085	29.0275	-28.3716	338.116	-68.1425	19.8341	-68.0418	68.3491	-27.0429	25.392	0.456334	1.81793	-65.4154	133.794
298183	-15.9596	21.6195	-34.1044	29.2838	-28.4433	338.372	-68.0567	20.424	-67.8144	68.5192	-26.9603	25.6404	0.458879	2.0541	-65.2719	133.344
298184	-15.9033	21.858	-33.9995	29.5392	-28.5142	338.628	-67.9684	21.0091	-67.5868	68.6852	-26.8769	25.8882	0.461756	2.29026	-65.1274	132.899
298185	-15.8463	22.0963	-33.8938	29.7938	-28.5842	338.885	-67.8778	21.5894	-67.3589	68.8472	-26.7928	26.1355	0.464962	2.52642	-64.9817	132.458
298186	-15.7888	22.3344	-33.7872	30.0476	-28.6535	339.142	-67.7848	22.1648	-67.1308	69.0052	-26.7079	26.3823	0.468498	2.76257	-64.8351	132.022
298187	-15.7307	22.5723	-33.6798	30.3005	-28.722	339.4	-67.6895	22.7352	-66.9024	69.1595	-26.6223	26.6287	0.472365	2.99872	-64.6875	131.589
298188	-15.672	22.81	-33.5716	30.5527	-28.7896	339.658	-67.5919	23.3005	-66.6738	69.3101	-26.5359	26.8745	0.476561	3.23487	-64.5389	131.161
298189	-15.6127	23.0474	-33.4626	30.804	-28.8565	339.916	-67.4921	23.8608	-66.4449	69.4571	-26.4488	27.1198	0.481087	3.471	-64.3893	130.737
298190	-15.5528	23.2846	-33.3528	31.0545	-28.9225	340.175	-67.39	24.416	-66.2159	69.6006	-26.361	27.3646	0.485943	3.70714	-64.2387	130.317
298191	-15.4923	23.5215	-33.2422	31.3042	-28.9877	340.435	-67.2857	24.9661	-65.9866	69.7408	-26.2725	27.6089	0.491128	3.94326	-64.0872	129.901
298192	-15.4313	23.7583	-33.1309	31.5531	-29.0521	340.694	-67.1793	25.5109	-65.7571	69.8776	-26.1832	27.8527	0.496643	4.17938	-63.9349	129.489
298193	-15.3697	23.9948	-33.0187	31.8011	-29.1156	340.955	-67.0708	26.0505	-65.5275	70.0112	-26.0932	28.0959	0.502488	4.41549	-63.7816	129.082
298194	-15.3075	24.2311	-32.9057	32.0484	-29.1783	341.215	-66.9601	26.5848	-65.2976	70.1418	-26.0025	28.3387	0.508661	4.6516	-63.6274	128.678
298195	-15.2447	24.4671	-32.7919	32.2948	-29.2402	341.476	-66.8474	27.1139	-65.0675	70.2692	-25.911	28.5809	0.515164	4.88769	-63.4724	128.278
298196	-15.1814	24.7029	-32.6774	32.5403	-29.3012	341.738	-66.7326	27.6376	-64.8373	70.3938	-25.8189	28.8226	0.521996	5.12378	-63.3165	127.881
298197	-15.1175	24.9385	-32.5621	32.7851	-29.3615	342	-66.6158	28.1561	-64.6069	70.5154	-25.726	29.0637	0.529157	5.35985	-63.1598	127.489
298198	-15.0531	25.1738	-32.446	33.029	-29.4208	342.262	-66.497	28.6692	-64.3763	70.6342	-25.6325	29.3044	0.536647	5.59592	-63.0022	127.1
298199	-14.988	25.4089	-32.3292	33.2721	-29.4794	342.525	-66.3762	29.177	-64.1456	70.7503	-25.5382	29.5445	0.544466	5.83198	-62.8439	126.715
298200	-14.9224	25.6438	-32.2116	33.5144	-29.5371	342.788	-66.2536	29.6794	-63.9147	70.8638	-25.4432	29.7841	0.552612	6.06802	-62.6847	126.334
298201	-14.8562	25.8784	-32.0932	33.7558	-29.5939	343.052	-66.129	30.1765	-63.6836	70.9746	-25.3476	30.0231	0.561088	6.30406	-62.5248	125.956
298202	-14.7895	26.1128	-31.9742	33.9964	-29.6499	343.315	-66.0026	30.6682	-63.4524	71.0829	-25.2512	30.2616	0.569891	6.54008	-62.3641	125.582
298203	-14.7222	26.3469	-31.8543	34.2362	-29.705	343.58	-65.8744	31.1547	-63.221	71.1887	-25.1542	30.4996	0.579023	6.77609	-62.2027	125.211
298204	-14.6544	26.5808	-31.7338	34.4751	-29.7593	343.844	-65.7443	31.6358	-62.9895	71.2922	-25.0564	30.7371	0.588482	7.01209	-62.0405	124.844
298205	-14.586	26.8144	-31.6124	34.7133	-29.8127	344.11	-65.6124	32.1116	-62.7578	71.3932	-24.958	30.974	0.59827	7.24808	-61.8776	124.48
298206	-14.517	27.0478	-31.4904	34.9506	-29.8653	344.375	-65.4788	32.5821	-62.526	71.492	-24.8589	31.2104	0.608384	7.48405	-61.714	124.12
298207	-14.4475	27.281	-31.3676	35.1871	-29.917	344.641	-65.3435	33.0473	-62.2941	71.5885	-24.7591	31.4463	0.618826	7.72002	-61.5498	123.763
298208	-14.3774	27.5138	-31.2441	35.4227	-29.9679	344.907	-65.2065	33.5072	-62.062	71.6829	-24.6587	31.6816	0.629595	7.95596	-61.3848	123.409
298209	-14.3068	27.7465	-31.1199	35.6576	-30.0178	345.173	-65.0679	33.962	-61.8299	71.7751	-24.5576	31.9164	0.640691	8.19189	-61.2191	123.058
298210	-14.2357	27.9789	-30.995	35.8916	-30.0669	345.44	-64.9276	34.4115	-61.5976	71.8653	-24.4558	32.1506	0.652114	8.42781	-61.0529	122.711
298211	-14.164	28.211	-30.8694	36.1248	-30.1152	345.707	-64.7857	34.8559	-61.3651	71.9534	-24.3533	32.3843	0.663863	8.66371	-60.8859	122.366
298212	-14.0917	28.4429	-30.7431	36.3571	-30.1626	345.975	-64.6422	35.2951	-61.1326	72.0395	-24.2502	32.6175	0.675938	8.8996	-60.7183	122.025
298213	-14.0189	28.6745	-30.6161	36.5887	-30.2091	346.243	-64.4971	35.7291	-60.8999	72.1236	-24.1464	32.8501	0.688339	9.13547	-60.5502	121.687
298214	-13.9456	28.9059	-30.4884	36.8194	-30.2547	346.511	-64.3505	36.1581	-60.6672	72.2059	-24.042	33.0822	0.701066	9.37132	-60.3813	121.352
298215	-13.8717	29.137	-30.3599	37.0493	-30.2994	346.779	-64.2024	36.582	-60.4343	72.2863	-23.9369	33.3137	0.714119	9.60716	-60.2119	121.02
298216	-13.7973	29.3679	-30.2309	37.2784	-30.3433	347.048	-64.0529	37.0009	-60.2014	72.3649	-23.8312	33.5447	0.727497	9.84298	-60.0419	120.69
298217	-13.7223	29.5985	-30.1011	37.5067	-30.3862	347.317	-63.9019	37.4149	-59.9683	72.4417	-23.7248	33.7752	0.7412	10.0788	-59.8714	120.364
298218	-13.6469	29.8289	-29.9706	37.7342	-30.4283	347.587	-63.7494	37.8239	-59.7351	72.5169	-23.6178	34.0051	0.755228	10.3146	-59.7002	120.04
298219	-13.5708	30.059	-29.8395	37.9608	-30.4695	347.857	-63.5956	38.2279	-59.5018	72.5902	-23.5101	34.2345	0.76958	10.5503	-59.5285	119.72
298220	-13.4943	30.2888	-29.7078	38.1867	-30.5098	348.127	-63.4404	38.6272	-59.2685	72.662	-23.4018	34.4633	0.784257	10.7861	-59.3563	119.402
298221	-13.4172	30.5184	-29.5753	38.4117	-30.5493	348.397	-63.2838	39.0216	-59.035	72.7321	-23.2929	34.6915	0.799257	11.0218	-59.1835	119.087
298222	-13.3396	30.7477	-29.4422	38.6359	-30.5878	348.668	-63.1259	39.4112	-58.8015	72.8006	-23.1834	34.9193	0.814581	11.2575	-59.0102	118.774
298223	-13.2615	30.9767	-29.3085	38.8593	-30.6254	348.938	-62.9667	39.7961	-58.5679	72.8676	-23.0732	35.1465	0.830229	11.4932	-58.8364	118.464
298224	-13.1829	31.2055	-29.1741	39.0819	-30.6622	349.21	-62.8062	40.1763	-58.3342	72.933	-22.9624	35.3731	0.846199	11.7289	-58.6621	118.157
298225	-13.1037	31.434	-29.039	39.3037	-30.698	349.481	-62.6445	40.5519	-58.1004	72.9969	-22.851	35.5992	0.862493	11.9645	-58.4873	117.853
298226	-13.024	31.6623	-28.9033	39.5247	-30.7329	349.753	-62.4815	40.9229	-57.8665	73.0594	-22.7389	35.8248	0.879109	12.2001	-58.3119	117.55
298227	-12.9438	31.8903	-28.767	39.7449	-30.767	350.025	-62.3173	41.2893	-57.6326	73.1205	-22.6263	36.0498	0.896047	12.4357	-58.1361	117.251
298228	-12.8631	32.118	-28.6301	39.9643	-30.8001	350.297	-62.1519	41.6513	-57.3986	73.1801	-22.513	36.2743	0.913307	12.6713	-57.9599	116.954
298229	-12.7818	32.3455	-28.4925	40.1829	-30.8324	350.569	-61.9853	42.0088	-57.1645	73.2384	-22.3991	36.4982	0.930889	12.9069	-57.7831	116.659
298230	-12.7001	32.5727	-28.3543	40.4007	-30.8637	350.842	-61.8176	42.3618	-56.9303	73.2953	-22.2847	36.7216	0.948791	13.1424	-57.606	116.367
298231	-12.6178	32.7996	-28.2155	40.6178	-30.8941	351.115	-61.6487	42.7106	-56.6961	73.351	-22.1696	36.9444	0.967015	13.3779	-57.4283	116.077
298232	-12.5351	33.0263	-28.076	40.834	-30.9236	351.388	-61.4788	43.055	-56.4618	73.4053	-22.0539	37.1667	0.985559	13.6134	-57.2503	115.79
298233	-12.4518	33.2527	-27.936	41.0494	-30.9522	351.661	-61.3077	43.3951	-56.2274	73.4583	-21.9377	37.3885	1.00442	13.8489	-57.0718	115.504
298234	-12.368	33.4788	-27.7953	41.2641	-30.9799	351.935	-61.1356	43.7311	-55.993	73.5101	-21.8208	37.6097	1.02361	14.0843	-56.8929	115.221
298235	-12.2837	33.7047	-27.6541	41.478	-31.0067	352.208	-60.9624	44.0629	-55.7585	73.5607	-21.7034	37.8303	1.04311	14.3197	-56.7135	114.941
298236	-12.199	33.9303	-27.5123	41.691	-31.0326	352.482	-60.7882	44.3905	-55.5239	73.6101	-21.5854	38.0505	1.06293	14.5551	-56.5338	114.662
298237	-12.1137	34.1556	-27.3698	41.9034	-31.0575	352.756	-60.6129	44.7141	-55.2893	73.6583	-21.4668	38.27	1.08308	14.7905	-56.3536	114.386
298238	-12.0279	34.3807	-27.2268	42.1149	-31.0816	353.031	-60.4367	45.0337	-55.0547	73.7054	-21.3476	38.4891	1.10353	15.0258	-56.1731	114.111
298239	-11.9417	34.6055	-27.0832	42.3257	-31.1047	353.305	-60.2595	45.3494	-54.8199	73.7513	-21.2278	38.7076	1.12431	15.2611	-55.9922	113.839
298240	-11.8549	34.83	-26.939	42.5356	-31.1269	353.58	-60.0813	45.6611	-54.5852	73.7961	-21.1075	38.9256	1.14541	15.4964	-55.8109	113.569
298241	-11.7677	35.0542	-26.7942	42.7449	-31.1482	353.855	-59.9022	45.9689	-54.3503	73.8398	-20.9866	39.143	1.16682	15.7317	-55.6292	113.301
298242	-11.6799	35.2782	-26.6488	42.9533	-31.1685	354.13	-59.7222	46.2729	-54.1155	73.8825	-20.8651	39.3599	1.18855	15.9669	-55.4472	113.035
298243	-11.5917	35.5019	-26.5029	43.161	-31.188	354.405	-59.5412	46.5732	-53.8805	73.9241	-20.7431	39.5762	1.2106	16.2021	-55.2648	112.771
298244	-11.503	35.7253	-26.3565	43.368	-31.2065	354.68	-59.3593	46.8697	-53.6455	73.9647	-20.6206	39.7921	1.23296	16.4373	-55.0821	112.509
298245	-11.4138	35.9485	-26.2094	43.5741	-31.2241	354.955	-59.1766	47.1625	-53.4105	74.0042	-20.4974	40.0073	1.25564	16.6725	-54.899	112.249
298246	-11.3241	36.1714	-26.0618	43.7796	-31.2407	355.231	-58.993	47.4517	-53.1754	74.0428	-20.3737	40.2221	1.27863	16.9076	-54.7156	111.991
298247	-11.234	36.394	-25.9137	43.9842	-31.2565	355.506	-58.8086	47.7374	-52.9403	74.0804	-20.2495	40.4363	1.30193	17.1427	-54.5318	111.734
298248	-11.1433	36.6164	-25.765	44.1881	-31.2713	355.782	-58.6233	48.0195	-52.7051	74.117	-20.1247	40.65	1.32556	17.3777	-54.3477	111.48
298249	-11.0522	36.8385	-25.6157	44.3913	-31.2852	356.058	-58.4372	48.2981	-52.4699	74.1527	-19.9994	40.8631	1.34949	17.6128	-54.1633	111.227
298250	-10.9607	37.0603	-25.4659	44.5937	-31.2982	356.334	-58.2503	48.5733	-52.2347	74.1875	-19.8735	41.0757	1.37374	17.8478	-53.9786	110.976
298251	-10.8686	37.2818	-25.3156	44.7954	-31.3102	356.61	-58.0626	48.845	-51.9994	74.2213	-19.7471	41.2878	1.3983	18.0828	-53.7936	110.727
298252	-10.7761	37.5031	-25.1648	44.9964	-31.3213	356.886	-57.8741	49.1134	-51.764	74.2543	-19.6201	41.4994	1.42318	18.3177	-53.6082	110.48
298253	-10.6831	37.7241	-25.0134	45.1966	-31.3315	357.162	-57.6849	49.3785	-51.5287	74.2863	-19.4927	41.7104	1.44836	18.5526	-53.4226	110.234
298254	-10.5897	37.9448	-24.8615	45.3961	-31.3407	357.439	-57.4949	49.6404	-51.2933	74.3175	-19.3647	41.9209	1.47386	18.7875	-53.2367	109.99
298255	-10.4957	38.1653	-24.709	45.5948	-31.3491	357.715	-57.3042	49.899	-51.0578	74.3479	-19.2361	42.1309	1.49967	19.0224	-53.0505	109.748
298256	-10.4014	38.3855	-24.5561	45.7928	-31.3565	357.991	-57.1128	50.1544	-50.8224	74.3774	-19.1071	42.3404	1.52579	19.2572	-52.864	109.507
298257	-10.3065	38.6054	-24.4026	45.9901	-31.3629	358.268	-56.9206	50.4068	-50.5869	74.4061	-18.9775	42.5493	1.55222	19.492	-52.6772	109.268
298258	-10.2112	38.825	-24.2486	46.1867	-31.3684	358.544	-56.7278	50.656	-50.3513	74.4339	-18.8475	42.7578	1.57896	19.7267	-52.4902	109.031
298259	-10.1155	39.0444	-24.0941	46.3826	-31.373	358.821	-56.5343	50.9022	-50.1157	74.461	-18.7169	42.9656	1.606	19.9614	-52.3029	108.795
298260	-10.0193	39.2635	-23.9391	46.5777	-31.3767	359.098	-56.34	51.1453	-49.8801	74.4873	-18.5858	43.173	1.63336	20.1961	-52.1153	108.561
298261	-9.92263	39.4823	-23.7836	46.7721	-31.3795	359.374	-56.1452	51.3855	-49.6445	74.5128	-18.4541	43.3799	1.66102	20.4308	-51.9275	108.328
298262	-9.82553	39.7009	-23.6276	46.9659	-31.3813	359.651	-55.9497	51.6228	-49.4088	74.5375	-18.322	43.5862	1.689	20.6654	-51.7394	108.097
298263	-9.72798	39.9192	-23.4712	47.1589	-31.3821	359.927	-55.7535	51.8572	-49.1731	74.5615	-18.1894	43.7921	1.71728	20.9	-51.5511	107.867
298264	-9.62998	40.1372	-23.3142	47.3512	-31.3821	0.203902	-55.5567	52.0887	-48.9374	74.5847	-18.0563	43.9974	1.74586	21.1346	-51.3625	107.639
298265	-9.53154	40.355	-23.1567	47.5428	-31.3811	0.480537	-55.3593	52.3175	-48.7017	74.6072	-17.9227	44.2022	1.77476	21.3691	-51.1737	107.412
298266	-9.43266	40.5725	-22.9988	47.7338	-31.3792	0.757162	-55.1613	52.5434	-48.4659	74.629	-17.7886	44.4065	1.80395	21.6036	-50.9847	107.186
298267	-9.33334	40.7897	-22.8404	47.924	-31.3763	1.03377	-54.9627	52.7667	-48.2301	74.6501	-17.654	44.6103	1.83346	21.8381	-50.7954	106.962
298268	-9.23358	41.0066	-22.6815	48.1135	-31.3725	1.31035	-54.7635	52.9872	-47.9943	74.6705	-17.5189	44.8135	1.86326	22.0725	-50.6059	106.74
298269	-9.13338	41.2233	-22.5221	48.3024	-31.3678	1.5869	-54.5637	53.2051	-47.7585	74.6902	-17.3834	45.0163	1.89338	22.3069	-50.4162	106.518
298270	-9.03275	41.4397	-22.3623	48.4906	-31.3622	1.86341	-54.3634	53.4204	-47.5226	74.7093	-17.2473	45.2186	1.92379	22.5413	-50.2263	106.298
298271	-8.93169	41.6559	-22.202	48.6781	-31.3556	2.13988	-54.1625	53.6331	-47.2867	74.7276	-17.1108	45.4204	1.95451	22.7756	-50.0362	106.08
298272	-8.8302	41.8718	-22.0412	48.8649	-31.3481	2.41629	-53.9611	53.8432	-47.0508	74.7453	-16.9738	45.6216	1.98553	23.0099	-49.8458	105.862
298273	-8.72828	42.0874	-21.88	49.051	-31.3396	2.69264	-53.7591	54.0508	-46.8149	74.7624	-16.8363	45.8224	2.01685	23.2441	-49.6553	105.646
298274	-8.62593	42.3027	-21.7184	49.2365	-31.3303	2.96893	-53.5566	54.256	-46.5789	74.7788	-16.6984	46.0227	2.04847	23.4783	-49.4645	105.432
298275	-8.52316	42.5178	-21.5562	49.4213	-31.32	3.24514	-53.3535	54.4587	-46.343	74.7946	-16.56	46.2225	2.08039	23.7125	-49.2736	105.218
298276	-8.41997	42.7326	-21.3937	49.6055	-31.3087	3.52127	-53.15	54.659	-46.107	74.8098	-16.4212	46.4217	2.11262	23.9466	-49.0825	105.006
298277	-8.31636	42.9472	-21.2306	49.789	-31.2966	3.79731	-52.946	54.8569	-45.871	74.8243	-16.2818	46.6205	2.14514	24.1807	-48.8911	104.795
298278	-8.21233	43.1615	-21.0672	49.9718	-31.2835	4.07326	-52.7414	55.0525	-45.635	74.8383	-16.1421	46.8188	2.17796	24.4148	-48.6996	104.585
298279	-8.10788	43.3755	-20.9033	50.154	-31.2695	4.3491	-52.5364	55.2458	-45.399	74.8516	-16.0018	47.0166	2.21108	24.6488	-48.5079	104.376
298280	-8.00302	43.5893	-20.7389	50.3356	-31.2545	4.62484	-52.3309	55.4368	-45.1629	74.8644	-15.8611	47.214	2.2445	24.8828	-48.316	104.168
298281	-7.89775	43.8028	-20.5742	50.5165	-31.2387	4.90046	-52.1249	55.6255	-44.9269	74.8765	-15.72	47.4108	2.27821	25.1168	-48.124	103.962
298282	-7.79207	44.0161	-20.409	50.6967	-31.2219	5.17596	-51.9185	55.8121	-44.6908	74.8881	-15.5784	47.6072	2.31222	25.3507	-47.9318	103.757
298283	-7.68597	44.2291	-20.2433	50.8763	-31.2042	5.45133	-51.7116	55.9964	-44.4547	74.8992	-15.4364	47.8031	2.34653	25.5846	-47.7394	103.553
298284	-7.57948	44.4418	-20.0773	51.0553	-31.1855	5.72657	-51.5043	56.1786	-44.2186	74.9096	-15.2939	47.9985	2.38113	25.8185	-47.5468	103.35
298285	-7.47257	44.6543	-19.9108	51.2336	-31.166	6.00166	-51.2965	56.3587	-43.9825	74.9196	-15.151	48.1934	2.41602	26.0523	-47.3541	103.148
298286	-7.36527	44.8665	-19.744	51.4114	-31.1455	6.2766	-51.0883	56.5366	-43.7464	74.929	-15.0077	48.3878	2.45121	26.286	-47.1612	102.947
298287	-7.25756	45.0784	-19.5767	51.5885	-31.1241	6.55139	-50.8796	56.7125	-43.5103	74.9378	-14.8639	48.5818	2.48669	26.5198	-46.9682	102.747
298288	-7.14946	45.2901	-19.409	51.7649	-31.1018	6.82601	-50.6706	56.8864	-43.2741	74.9461	-14.7197	48.7753	2.52247	26.7535	-46.775	102.548
298289	-7.04096	45.5016	-19.2409	51.9408	-31.0786	7.10047	-50.4611	57.0582	-43.038	74.9539	-14.5751	48.9684	2.55854	26.9871	-46.5817	102.35
298290	-6.93206	45.7127	-19.0723	52.116	-31.0544	7.37474	-50.2512	57.2281	-42.8018	74.9611	-14.43	49.1609	2.59489	27.2207	-46.3882	102.153
298291	-6.82278	45.9237	-18.9034	52.2906	-31.0293	7.64884	-50.041	57.396	-42.5657	74.9679	-14.2845	49.353	2.63154	27.4543	-46.1946	101.957
298292	-6.7131	46.1344	-18.7341	52.4647	-31.0034	7.92275	-49.8303	57.562	-42.3295	74.9741	-14.1386	49.5447	2.66848	27.6879	-46.0009	101.763
298293	-6.60303	46.3448	-18.5644	52.6381	-30.9765	8.19646	-49.6193	57.726	-42.0933	74.9799	-13.9923	49.7358	2.70571	27.9214	-45.807	101.569
298294	-6.49258	46.555	-18.3943	52.8109	-30.9487	8.46997	-49.4078	57.8882	-41.8571	74.9851	-13.8456	49.9266	2.74323	28.1548	-45.6129	101.376
298295	-6.38174	46.7649	-18.2238	52.9831	-30.9199	8.74326	-49.196	58.0485	-41.621	74.9899	-13.6984	50.1168	2.78103	28.3882	-45.4188	101.184
298296	-6.27052	46.9746	-18.0529	53.1547	-30.8903	9.01635	-48.9838	58.207	-41.3848	74.9941	-13.5509	50.3066	2.81912	28.6216	-45.2245	100.993
298297	-6.15891	47.184	-17.8817	53.3258	-30.8598	9.28921	-48.7713	58.3637	-41.1486	74.9979	-13.4029	50.496	2.8575	28.855	-45.0301	100.803
298298	-6.04693	47.3931	-17.71	53.4962	-30.8283	9.56185	-48.5584	58.5186	-40.9124	75.0012	-13.2546	50.6849	2.89617	29.0883	-44.8356	100.613
298299	-5.93457	47.6021	-17.538	53.6661	-30.796	9.83425	-48.3452	58.6718	-40.6761	75.0041	-13.1058	50.8734	2.93512	29.3215	-44.6409	100.425
298300	-5.82184	47.8107	-17.3656	53.8354	-30.7627	10.1064	-48.1316	58.8232	-40.4399	75.0065	-12.9566	51.0614	2.97435	29.5548	-44.4461	100.237
298301	-5.70873	48.0192	-17.1928	54.0041	-30.7286	10.3783	-47.9176	58.9729	-40.2037	75.0084	-12.8071	51.2489	3.01387	29.788	-44.2512	100.051
298302	-5.59526	48.2274	-17.0197	54.1722	-30.6935	10.65	-47.7034	59.1209	-39.9675	75.0099	-12.6571	51.4361	3.05367	30.0211	-44.0562	99.8649
298303	-5.48141	48.4353	-16.8462	54.3398	-30.6576	10.9214	-47.4888	59.2673	-39.7313	75.0109	-12.5068	51.6228	3.09375	30.2542	-43.8611	99.6799
298304	-5.36719	48.643	-16.6723	54.5068	-30.6207	11.1925	-47.2738	59.412	-39.4951	75.0115	-12.3561	51.809	3.13412	30.4873	-43.6659	99.4958
298305	-5.25261	48.8505	-16.4981	54.6732	-30.583	11.4634	-47.0586	59.5551	-39.2589	75.0116	-12.205	51.9948	3.17477	30.7203	-43.4706	99.3124
298306	-5.13767	49.0577	-16.3235	54.8391	-30.5443	11.734	-46.843	59.6965	-39.0226	75.0113	-12.0535	52.1802	3.21569	30.9533	-43.2752	99.1299
298307	-5.02236	49.2647	-16.1485	55.0044	-30.5048	12.0043	-46.6272	59.8364	-38.7864	75.0106	-11.9016	52.3651	3.2569	31.1863	-43.0797	98.9481
298308	-4.9067	49.4714	-15.9732	55.1692	-30.4643	12.2743	-46.411	59.9748	-38.5502	75.0094	-11.7493	52.5497	3.29839	31.4192	-42.8841	98.7671
298309	-4.79068	49.6779	-15.7976	55.3334	-30.423	12.5441	-46.1945	60.1116	-38.314	75.0079	-11.5967	52.7338	3.34015	31.652	-42.6883	98.5869
298310	-4.6743	49.8842	-15.6216	55.4971	-30.3808	12.8135	-45.9777	60.2469	-38.0778	75.0058	-11.4437	52.9174	3.38219	31.8849	-42.4925	98.4074
298311	-4.55757	50.0902	-15.4452	55.6602	-30.3377	13.0826	-45.7607	60.3807	-37.8415	75.0034	-11.2903	53.1007	3.4245	32.1177	-42.2966	98.2287
298312	-4.44048	50.296	-15.2685	55.8228	-30.2938	13.3514	-45.5433	60.513	-37.6053	75.0006	-11.1365	53.2835	3.4671	32.3504	-42.1007	98.0507
298313	-4.32305	50.5016	-15.0915	55.9849	-30.2489	13.6199	-45.3257	60.6438	-37.3691	74.9974	-10.9824	53.4659	3.50997	32.5831	-41.9046	97.8734
298314	-4.20527	50.7069	-14.9141	56.1464	-30.2032	13.8881	-45.1078	60.7732	-37.1329	74.9938	-10.828	53.6479	3.55311	32.8158	-41.7084	97.6968
298315	-4.08714	50.912	-14.7364	56.3074	-30.1566	14.1559	-44.8896	60.9012	-36.8967	74.9897	-10.6731	53.8295	3.59652	33.0484	-41.5122	97.5209
298316	-3.96866	51.1169	-14.5584	56.4678	-30.1091	14.4234	-44.6711	61.0277	-36.6605	74.9853	-10.5179	54.0107	3.64021	33.281	-41.3159	97.3458
298317	-3.84985	51.3215	-14.38	56.6278	-30.0608	14.6906	-44.4524	61.1529	-36.4243	74.9805	-10.3624	54.1914	3.68417	33.5136	-41.1195	97.1713
298318	-3.73069	51.5259	-14.2013	56.7872	-30.0116	14.9574	-44.2334	61.2767	-36.1882	74.9753	-10.2065	54.3718	3.7284	33.7461	-40.923	96.9974
298319	-3.6112	51.7301	-14.0223	56.9461	-29.9615	15.2239	-44.0142	61.3992	-35.952	74.9697	-10.0502	54.5518	3.77291	33.9786	-40.7265	96.8243
298320	-3.49137	51.9341	-13.843	57.1046	-29.9105	15.4901	-43.7947	61.5203	-35.7158	74.9637	-9.89357	54.7313	3.81768	34.211	-40.5299	96.6517
298321	-3.3712	52.1378	-13.6633	57.2625	-29.8587	15.7558	-43.5749	61.6401	-35.4796	74.9574	-9.73661	54.9105	3.86272	34.4434	-40.3332	96.4799
298322	-3.2507	52.3413	-13.4833	57.4198	-29.806	16.0212	-43.3549	61.7586	-35.2435	74.9506	-9.5793	55.0892	3.90803	34.6757	-40.1364	96.3086
298323	-3.12987	52.5446	-13.303	57.5767	-29.7525	16.2863	-43.1347	61.8758	-35.0073	74.9435	-9.42165	55.2676	3.95361	34.9081	-39.9396	96.138
298324	-3.00871	52.7477	-13.1224	57.7331	-29.6981	16.5509	-42.9142	61.9917	-34.7712	74.9361	-9.26366	55.4456	3.99945	35.1403	-39.7428	95.968
298325	-2.88722	52.9506	-12.9415	57.889	-29.6429	16.8152	-42.6935	62.1064	-34.535	74.9282	-9.10533	55.6232	4.04556	35.3726	-39.5458	95.7986
298326	-2.76541	53.1532	-12.7602	58.0444	-29.5868	17.0791	-42.4725	62.2198	-34.2989	74.92	-8.94667	55.8004	4.09193	35.6048	-39.3488	95.6297
298327	-2.64327	53.3556	-12.5787	58.1994	-29.5298	17.3426	-42.2514	62.332	-34.0628	74.9115	-8.78767	55.9772	4.13857	35.8369	-39.1518	95.4615
298328	-2.52082	53.5579	-12.3968	58.3538	-29.472	17.6057	-42.03	62.443	-33.8267	74.9025	-8.62834	56.1536	4.18547	36.069	-38.9547	95.2939
298329	-2.39804	53.7598	-12.2147	58.5077	-29.4134	17.8685	-41.8083	62.5528	-33.5906	74.8932	-8.46868	56.3297	4.23263	36.3011	-38.7575	95.1268
298330	-2.27494	53.9616	-12.0322	58.6612	-29.3539	18.1308	-41.5865	62.6615	-33.3545	74.8836	-8.30869	56.5054	4.28006	36.5331	-38.5603	94.9603
298331	-2.15153	54.1632	-11.8495	58.8142	-29.2936	18.3927	-41.3644	62.7689	-33.1184	74.8736	-8.14838	56.6807	4.32774	36.7651	-38.363	94.7943
298332	-2.0278	54.3646	-11.6664	58.9667	-29.2324	18.6542	-41.1421	62.8752	-32.8824	74.8633	-7.98775	56.8556	4.37569	36.9971	-38.1657	94.6289
298333	-1.90376	54.5657	-11.4831	59.1188	-29.1704	18.9153	-40.9196	62.9804	-32.6463	74.8526	-7.82679	57.0302	4.42389	37.229	-37.9684	94.464
298334	-1.77942	54.7667	-11.2995	59.2704	-29.1076	19.176	-40.6969	63.0844	-32.4103	74.8416	-7.66552	57.2044	4.47236	37.4609	-37.771	94.2996
298335	-1.65476	54.9674	-11.1156	59.4215	-29.044	19.4362	-40.474	63.1874	-32.1742	74.8303	-7.50393	57.3782	4.52108	37.6927	-37.5735	94.1358
298336	-1.52979	55.168	-10.9314	59.5722	-28.9795	19.696	-40.2509	63.2892	-31.9382	74.8186	-7.34202	57.5517	4.57006	37.9245	-37.3761	93.9724
298337	-1.40452	55.3683	-10.7469	59.7224	-28.9142	19.9554	-40.0276	63.3899	-31.7022	74.8065	-7.1798	57.7248	4.61929	38.1563	-37.1785	93.8096
298338	-1.27895	55.5684	-10.5621	59.8722	-28.8481	20.2144	-39.8041	63.4896	-31.4662	74.7942	-7.01728	57.8976	4.66878	38.388	-36.981	93.6473
298339	-1.15308	55.7684	-10.3771	60.0215	-28.7812	20.4729	-39.5804	63.5882	-31.2303	74.7815	-6.85444	58.07	4.71852	38.6197	-36.7834	93.4854
298340	-1.0269	55.9681	-10.1917	60.1704	-28.7134	20.7309	-39.3565	63.6858	-30.9943	74.7684	-6.6913	58.242	4.76852	38.8514	-36.5858	93.324
298341	-0.90043	56.1677	-10.0061	60.3188	-28.6448	20.9886	-39.1325	63.7823	-30.7583	74.7551	-6.52786	58.4137	4.81877	39.083	-36.3881	93.1632
298342	-0.773662	56.367	-9.82024	60.4668	-28.5755	21.2457	-38.9082	63.8778	-30.5224	74.7414	-6.36411	58.5851	4.86927	39.3145	-36.1904	93.0027
298343	-0.6466	56.5662	-9.63409	60.6144	-28.5053	21.5024	-38.6838	63.9723	-30.2865	74.7274	-6.20007	58.7561	4.92002	39.5461	-35.9927	92.8428
298344	-0.519246	56.7652	-9.44767	60.7615	-28.4343	21.7587	-38.4591	64.0658	-30.0506	74.713	-6.03573	58.9267	4.97102	39.7776	-35.795	92.6833
298345	-0.391602	56.9639	-9.26097	60.9082	-28.3625	22.0145	-38.2343	64.1583	-29.8147	74.6984	-5.87109	59.0971	5.02226	40.0091	-35.5972	92.5242
298346	-0.263669	57.1625	-9.07402	61.0545	-28.2899	22.2698	-38.0094	64.2498	-29.5788	74.6834	-5.70616	59.2671	5.07376	40.2405	-35.3994	92.3655
298347	-0.13545	57.361	-8.8868	61.2003	-28.2165	22.5247	-37.7842	64.3404	-29.343	74.6681	-5.54093	59.4367	5.12551	40.4719	-35.2016	92.2074
298348	-0.00694473	57.5592	-8.69931	61.3458	-28.1424	22.7791	-37.5589	64.43	-29.1071	74.6525	-5.37542	59.6061	5.1775	40.7032	-35.0037	92.0496
298349	0.121843	57.7572	-8.51157	61.4908	-28.0674	23.033	-37.3334	64.5186	-28.8713	74.6366	-5.20962	59.775	5.22973	40.9345	-34.8059	91.8922
298350	0.250912	57.9551	-8.32357	61.6354	-27.9916	23.2864	-37.1078	64.6063	-28.6355	74.6204	-5.04354	59.9437	5.28221	41.1658	-34.608	91.7353
298351	0.380261	58.1527	-8.13531	61.7796	-27.9151	23.5394	-36.8819	64.6931	-28.3997	74.6038	-4.87717	60.1121	5.33494	41.3971	-34.4101	91.5787
298352	0.509888	58.3502	-7.9468	61.9233	-27.8378	23.7919	-36.656	64.779	-28.164	74.587	-4.71052	60.2801	5.3879	41.6283	-34.2122	91.4226
298353	0.639791	58.5475	-7.75803	62.0667	-27.7597	24.0439	-36.4298	64.864	-27.9282	74.5699	-4.54359	60.4478	5.44111	41.8594	-34.0143	91.2668
298354	0.769968	58.7447	-7.56902	62.2097	-27.6808	24.2954	-36.2035	64.9481	-27.6925	74.5524	-4.37639	60.6152	5.49456	42.0906	-33.8163	91.1114
298355	0.900417	58.9417	-7.37975	62.3523	-27.6012	24.5464	-35.9771	65.0313	-27.4568	74.5346	-4.20891	60.7822	5.54825	42.3217	-33.6184	90.9564
298356	1.03114	59.1384	-7.19024	62.4945	-27.5208	24.7969	-35.7505	65.1136	-27.2211	74.5166	-4.04115	60.949	5.60218	42.5527	-33.4204	90.8018
298357	1.16213	59.3351	-7.00048	62.6363	-27.4396	25.0469	-35.5237	65.195	-26.9855	74.4982	-3.87313	61.1154	5.65634	42.7838	-33.2225	90.6475
298358	1.29338	59.5315	-6.81048	62.7777	-27.3577	25.2964	-35.2968	65.2756	-26.7498	74.4795	-3.70483	61.2816	5.71075	43.0148	-33.0245	90.4936
298359	1.4249	59.7278	-6.62024	62.9187	-27.275	25.5454	-35.0698	65.3554	-26.5142	74.4606	-3.53627	61.4474	5.76539	43.2457	-32.8265	90.3401
298360	1.55669	59.9239	-6.42976	63.0593	-27.1916	25.7939	-34.8426	65.4343	-26.2786	74.4413	-3.36744	61.6129	5.82026	43.4767	-32.6286	90.1869
298361	1.68873	60.1199	-6.23904	63.1996	-27.1074	26.0419	-34.6153	65.5124	-26.043	74.4218	-3.19835	61.7782	5.87537	43.7076	-32.4306	90.034
298362	1.82104	60.3157	-6.04809	63.3395	-27.0224	26.2894	-34.3878	65.5896	-25.8074	74.4019	-3.02899	61.9431	5.93072	43.9384	-32.2326	89.8815
298363	1.95361	60.5113	-5.8569	63.479	-26.9367	26.5364	-34.1602	65.6661	-25.5719	74.3817	-2.85938	62.1078	5.98629	44.1693	-32.0346	89.7293
298364	2.08643	60.7068	-5.66548	63.6181	-26.8503	26.7829	-33.9324	65.7417	-25.3364	74.3613	-2.6895	62.2721	6.0421	44.4001	-31.8367	89.5774
298365	2.2195	60.9021	-5.47382	63.7569	-26.7631	27.0288	-33.7045	65.8166	-25.1009	74.3406	-2.51937	62.4362	6.09814	44.6308	-31.6387	89.4259
298366	2.35283	61.0973	-5.28194	63.8953	-26.6752	27.2742	-33.4765	65.8907	-24.8654	74.3196	-2.34899	62.6	6.15441	44.8616	-31.4407	89.2746
298367	2.48641	61.2923	-5.08983	64.0334	-26.5865	27.5192	-33.2484	65.964	-24.63	74.2982	-2.17835	62.7635	6.2109	45.0923	-31.2428	89.1237
298368	2.62024	61.4872	-4.8975	64.1711	-26.4971	27.7635	-33.0201	66.0365	-24.3946	74.2766	-2.00746	62.9267	6.26763	45.3229	-31.0448	88.9731
298369	2.75432	61.6819	-4.70494	64.3084	-26.407	28.0074	-32.7917	66.1082	-24.1592	74.2548	-1.83632	63.0896	6.32458	45.5536	-30.8469	88.8227
298370	2.88864	61.8764	-4.51216	64.4454	-26.3162	28.2507	-32.5631	66.1792	-23.9238	74.2326	-1.66494	63.2523	6.38176	45.7842	-30.649	88.6727
298371	3.02321	62.0709	-4.31916	64.582	-26.2246	28.4935	-32.3345	66.2495	-23.6885	74.2101	-1.49331	63.4147	6.43916	46.0147	-30.451	88.5229
298372	3.15802	62.2651	-4.12594	64.7183	-26.1323	28.7358	-32.1057	66.319	-23.4532	74.1873	-1.32144	63.5768	6.49679	46.2453	-30.2531	88.3734
298373	3.29307	62.4593	-3.93251	64.8543	-26.0393	28.9776	-31.8768	66.3878	-23.2179	74.1643	-1.14932	63.7387	6.55464	46.4758	-30.0553	88.2242
298374	3.42836	62.6533	-3.73885	64.9899	-25.9456	29.2188	-31.6478	66.4558	-22.9826	74.141	-0.976963	63.9003	6.61271	46.7063	-29.8574	88.0753
298375	3.56389	62.8471	-3.54499	65.1252	-25.8512	29.4595	-31.4186	66.5232	-22.7474	74.1174	-0.804369	64.0616	6.671	46.9368	-29.6595	87.9266
298376	3.69965	63.0408	-3.35091	65.2601	-25.7561	29.6996	-31.1894	66.5898	-22.5122	74.0935	-0.631537	64.2226	6.72951	47.1672	-29.4617	87.7782
298377	3.83565	63.2344	-3.15662	65.3947	-25.6603	29.9392	-30.96	66.6557	-22.277	74.0694	-0.458471	64.3834	6.78825	47.3976	-29.2639	87.63
298378	3.97188	63.4279	-2.96212	65.529	-25.5638	30.1783	-30.7305	66.721	-22.0419	74.0449	-0.285172	64.544	6.8472	47.628	-29.0661	87.4821
298379	4.10834	63.6212	-2.76741	65.6629	-25.4666	30.4168	-30.5009	66.7855	-21.8068	74.0202	-0.111641	64.7043	6.90636	47.8583	-28.8683	87.3344
298380	4.24503	63.8144	-2.5725	65.7965	-25.3686	30.6548	-30.2712	66.8494	-21.5717	73.9952	0.06212	64.8644	6.96575	48.0886	-28.6705	87.187
298381	4.38194	64.0074	-2.37738	65.9299	-25.2701	30.8922	-30.0414	66.9125	-21.3366	73.9699	0.236109	65.0242	7.02535	48.3189	-28.4728	87.0398
298382	4.51909	64.2004	-2.18207	66.0629	-25.1708	31.1291	-29.8114	66.975	-21.1016	73.9443	0.410324	65.1837	7.08516	48.5492	-28.2751	86.8928
298383	4.65645	64.3932	-1.98654	66.1955	-25.0708	31.3655	-29.5814	67.0369	-20.8666	73.9185	0.584763	65.343	7.14519	48.7794	-28.0774	86.7461
298384	4.79404	64.5859	-1.79082	66.3279	-24.9702	31.6013	-29.3513	67.0981	-20.6316	73.8923	0.759426	65.5021	7.20543	49.0096	-27.8798	86.5996
298385	4.93185	64.7785	-1.5949	66.46	-24.8688	31.8366	-29.121	67.1586	-20.3967	73.8659	0.93431	65.6609	7.26588	49.2398	-27.6822	86.4533
298386	5.06987	64.9709	-1.39879	66.5917	-24.7669	32.0713	-28.8907	67.2185	-20.1618	73.8393	1.10941	65.8196	7.32654	49.47	-27.4846	86.3072
298387	5.20811	65.1633	-1.20247	66.7232	-24.6642	32.3055	-28.6602	67.2777	-19.9269	73.8123	1.28473	65.9779	7.38741	49.7001	-27.2871	86.1613
298388	5.34657	65.3555	-1.00597	66.8543	-24.5609	32.5391	-28.4297	67.3363	-19.692	73.7851	1.46027	66.1361	7.44848	49.9302	-27.0895	86.0156
298389	5.48524	65.5476	-0.80927	66.9852	-24.4569	32.7722	-28.199	67.3943	-19.4572	73.7576	1.63602	66.294	7.50977	50.1603	-26.8921	85.8701
298390	5.62413	65.7396	-0.612381	67.1158	-24.3522	33.0047	-27.9683	67.4517	-19.2224	73.7298	1.81199	66.4517	7.57126	50.3904	-26.6946	85.7248
298391	5.76322	65.9315	-0.415302	67.246	-24.2469	33.2367	-27.7374	67.5084	-18.9877	73.7017	1.98817	66.6092	7.63296	50.6204	-26.4972	85.5797
298392	5.90252	66.1233	-0.218035	67.376	-24.141	33.4681	-27.5065	67.5645	-18.753	73.6734	2.16455	66.7664	7.69486	50.8504	-26.2998	85.4347
298393	6.04203	66.315	-0.0205818	67.5057	-24.0344	33.699	-27.2755	67.62	-18.5183	73.6448	2.34115	66.9235	7.75696	51.0804	-26.1025	85.29
298394	6.18174	66.5066	0.177057	67.6351	-23.9271	33.9293	-27.0444	67.675	-18.2837	73.6159	2.51795	67.0803	7.81927	51.3104	-25.9052	85.1454
298395	6.32166	66.698	0.37488	67.7643	-23.8192	34.1591	-26.8132	67.7293	-18.0491	73.5868	2.69495	67.2369	7.88178	51.5404	-25.708	85.001
298396	6.46178	66.8894	0.572885	67.8932	-23.7107	34.3883	-26.5819	67.783	-17.8145	73.5573	2.87216	67.3933	7.94448	51.7703	-25.5108	84.8567
298397	6.6021	67.0807	0.771071	68.0217	-23.6015	34.617	-26.3505	67.8362	-17.5799	73.5276	3.04957	67.5495	8.00739	52.0002	-25.3136	84.7126
298398	6.74262	67.2719	0.969437	68.1501	-23.4917	34.8451	-26.119	67.8887	-17.3454	73.4977	3.22718	67.7056	8.07049	52.2301	-25.1165	84.5687
298399	6.88333	67.463	1.16798	68.2781	-23.3813	35.0727	-25.8874	67.9407	-17.111	73.4674	3.40499	67.8614	8.1338	52.46	-24.9195	84.4249
298400	7.02424	67.6541	1.3667	68.4059	-23.2702	35.2997	-25.6558	67.9922	-16.8765	73.4369	3.583	68.017	8.1973	52.6899	-24.7224	84.2813
298401	7.16534	67.845	1.5656	68.5334	-23.1585	35.5261	-25.4241	68.043	-16.6421	73.4061	3.7612	68.1724	8.26099	52.9197	-24.5255	84.1379
298402	7.30664	68.0358	1.76467	68.6607	-23.0462	35.752	-25.1923	68.0933	-16.4078	73.375	3.9396	68.3276	8.32487	53.1495	-24.3285	83.9945
298403	7.44812	68.2266	1.96391	68.7877	-22.9333	35.9774	-24.9604	68.1431	-16.1735	73.3437	4.11819	68.4827	8.38895	53.3793	-24.1317	83.8513
298404	7.5898	68.4173	2.16333	68.9145	-22.8197	36.2022	-24.7284	68.1922	-15.9392	73.312	4.29696	68.6375	8.45322	53.6091	-23.9349	83.7082
298405	7.73166	68.6079	2.36292	69.0409	-22.7056	36.4265	-24.4963	68.2409	-15.705	73.2802	4.47593	68.7922	8.51769	53.8389	-23.7381	83.5653
298406	7.8737	68.7984	2.56267	69.1672	-22.5908	36.6502	-24.2642	68.289	-15.4708	73.248	4.65509	68.9467	8.58234	54.0686	-23.5414	83.4225
298407	8.01593	68.9889	2.76259	69.2932	-22.4754	36.8733	-24.032	68.3365	-15.2366	73.2155	4.83443	69.101	8.64718	54.2984	-23.3448	83.2798
298408	8.15834	69.1793	2.96268	69.419	-22.3595	37.0959	-23.7997	68.3836	-15.0025	73.1828	5.01396	69.2551	8.71221	54.5281	-23.1482	83.1372
298409	8.30093	69.3696	3.16293	69.5445	-22.2429	37.318	-23.5674	68.4301	-14.7684	73.1499	5.19367	69.409	8.77742	54.7578	-22.9516	82.9947
298410	8.4437	69.5598	3.36335	69.6698	-22.1258	37.5395	-23.3349	68.476	-14.5343	73.1166	5.37356	69.5628	8.84282	54.9875	-22.7552	82.8524
298411	8.58665	69.75	3.56393	69.7948	-22.008	37.7604	-23.1024	68.5215	-14.3003	73.0831	5.55363	69.7165	8.9084	55.2172	-22.5588	82.7101
298412	8.72977	69.9402	3.76467	69.9197	-21.8897	37.9808	-22.8698	68.5664	-14.0664	73.0492	5.73388	69.8699	8.97417	55.4469	-22.3624	82.568
298413	8.87307	70.1302	3.96557	70.0442	-21.7708	38.2007	-22.6372	68.6108	-13.8325	73.0152	5.91431	70.0232	9.04012	55.6766	-22.1661	82.4259
298414	9.01654	70.3202	4.16664	70.1686	-21.6513	38.42	-22.4045	68.6547	-13.5986	72.9808	6.09491	70.1764	9.10625	55.9062	-21.9699	82.284
298415	9.16018	70.5102	4.36785	70.2927	-21.5312	38.6387	-22.1717	68.6981	-13.3648	72.9462	6.27569	70.3293	9.17256	56.1359	-21.7738	82.1421
298416	9.30398	70.7001	4.56923	70.4167	-21.4106	38.8569	-21.9388	68.741	-13.131	72.9112	6.45664	70.4822	9.23905	56.3655	-21.5777	82.0003
298417	9.44796	70.8899	4.77076	70.5403	-21.2893	39.0746	-21.7059	68.7834	-12.8972	72.8761	6.63776	70.6349	9.30572	56.5951	-21.3817	81.8586
298418	9.5921	71.0797	4.97244	70.6638	-21.1675	39.2917	-21.4729	68.8254	-12.6635	72.8406	6.81905	70.7874	9.37257	56.8247	-21.1857	81.717
298419	9.7364	71.2694	5.17427	70.7871	-21.0452	39.5083	-21.2398	68.8668	-12.4299	72.8049	7.00051	70.9398	9.43959	57.0543	-20.9898	81.5754
298420	9.88087	71.4591	5.37626	70.9101	-20.9222	39.7243	-21.0067	68.9077	-12.1963	72.7688	7.18214	71.092	9.50678	57.2839	-20.794	81.4339
298421	10.0255	71.6488	5.5784	71.033	-20.7988	39.9398	-20.7735	68.9481	-11.9627	72.7325	7.36393	71.2441	9.57415	57.5135	-20.5983	81.2925
298422	10.1703	71.8384	5.78069	71.1556	-20.6747	40.1548	-20.5402	68.9881	-11.7292	72.696	7.54589	71.3961	9.64169	57.7431	-20.4026	81.1512
298423	10.3152	72.028	5.98312	71.2781	-20.5501	40.3692	-20.3069	69.0276	-11.4957	72.6591	7.728	71.5479	9.70941	57.9727	-20.207	81.0099
298424	10.4603	72.2175	6.1857	71.4003	-20.425	40.583	-20.0735	69.0666	-11.2623	72.622	7.91029	71.6996	9.77729	58.2023	-20.0115	80.8687
298425	10.6056	72.407	6.38843	71.5224	-20.2993	40.7963	-19.8401	69.1051	-11.0289	72.5846	8.09272	71.8512	9.84534	58.4319	-19.8161	80.7275
298426	10.751	72.5965	6.5913	71.6442	-20.1731	41.0091	-19.6066	69.1432	-10.7956	72.5469	8.27532	72.0026	9.91356	58.6614	-19.6207	80.5864
298427	10.8965	72.786	6.79431	71.7659	-20.0463	41.2214	-19.373	69.1808	-10.5623	72.5089	8.45808	72.154	9.98195	58.891	-19.4255	80.4453
298428	11.0422	72.9754	6.99747	71.8873	-19.919	41.4331	-19.1394	69.218	-10.3291	72.4707	8.64099	72.3052	10.0505	59.1206	-19.2303	80.3043
298429	11.1881	73.1648	7.20077	72.0086	-19.7912	41.6443	-18.9058	69.2547	-10.0959	72.4321	8.82406	72.4562	10.1192	59.3501	-19.0352	80.1633
298430	11.3341	73.3542	7.40421	72.1297	-19.6628	41.8549	-18.672	69.2909	-9.86274	72.3933	9.00727	72.6072	10.1881	59.5797	-18.8401	80.0223
298431	11.4803	73.5435	7.60778	72.2506	-19.5339	42.065	-18.4382	69.3267	-9.62965	72.3542	9.19064	72.7581	10.2571	59.8092	-18.6452	79.8814
298432	11.6265	73.7329	7.8115	72.3714	-19.4045	42.2746	-18.2044	69.3621	-9.39662	72.3148	9.37416	72.9088	10.3264	60.0388	-18.4503	79.7405
298433	11.773	73.9222	8.01535	72.4919	-19.2745	42.4837	-17.9705	69.397	-9.16363	72.2752	9.55783	73.0595	10.3957	60.2683	-18.2556	79.5997
298434	11.9195	74.1115	8.21933	72.6123	-19.1441	42.6922	-17.7366	69.4314	-8.9307	72.2352	9.74165	73.21	10.4652	60.4979	-18.0609	79.4588
298435	12.0663	74.3008	8.42346	72.7325	-19.0131	42.9002	-17.5025	69.4654	-8.69782	72.195	9.92561	73.3605	10.5349	60.7275	-17.8663	79.318
298436	12.2131	74.4901	8.62771	72.8526	-18.8816	43.1076	-17.2685	69.499	-8.465	72.1545	10.1097	73.5108	10.6048	60.957	-17.6718	79.1772
298437	12.3601	74.6794	8.8321	72.9725	-18.7496	43.3146	-17.0344	69.5321	-8.23222	72.1137	10.294	73.6611	10.6748	61.1866	-17.4774	79.0364
298438	12.5072	74.8687	9.03661	73.0922	-18.6171	43.521	-16.8002	69.5648	-7.9995	72.0726	10.4784	73.8112	10.7449	61.4162	-17.283	78.8956
298439	12.6544	75.058	9.24126	73.2118	-18.4841	43.7269	-16.566	69.5971	-7.76683	72.0312	10.6629	73.9613	10.8152	61.6458	-17.0888	78.7548
298440	12.8018	75.2473	9.44604	73.3312	-18.3505	43.9323	-16.3318	69.629	-7.53422	71.9895	10.8476	74.1113	10.8857	61.8753	-16.8947	78.6141
298441	12.9493	75.4366	9.65094	73.4504	-18.2165	44.1371	-16.0975	69.6604	-7.30166	71.9476	11.0324	74.2612	10.9563	62.1049	-16.7006	78.4733
298442	13.0969	75.626	9.85597	73.5695	-18.082	44.3415	-15.8631	69.6914	-7.06916	71.9053	11.2173	74.411	11.0271	62.3345	-16.5067	78.3325
298443	13.2447	75.8153	10.0611	73.6885	-17.947	44.5453	-15.6287	69.722	-6.83672	71.8628	11.4024	74.5607	11.098	62.5641	-16.3129	78.1917
298444	13.3926	76.0046	10.2664	73.8073	-17.8115	44.7486	-15.3943	69.7522	-6.60433	71.8199	11.5876	74.7104	11.169	62.7938	-16.1191	78.0509
298445	13.5406	76.194	10.4718	73.926	-17.6756	44.9514	-15.1598	69.7819	-6.37199	71.7768	11.773	74.86	11.2402	63.0234	-15.9255	77.9101
298446	13.6887	76.3833	10.6774	74.0445	-17.5391	45.1537	-14.9253	69.8113	-6.13972	71.7334	11.9584	75.0095	11.3116	63.253	-15.7319	77.7693
298447	13.8369	76.5727	10.883	74.1629	-17.4022	45.3555	-14.6907	69.8402	-5.9075	71.6897	12.144	75.159	11.3831	63.4826	-15.5385	77.6285
298448	13.9853	76.7622	11.0888	74.2811	-17.2648	45.5567	-14.4561	69.8687	-5.67534	71.6456	12.3298	75.3084	11.4547	63.7123	-15.3452	77.4876
298449	14.1338	76.9516	11.2947	74.3992	-17.1269	45.7575	-14.2214	69.8968	-5.44325	71.6013	12.5156	75.4578	11.5265	63.942	-15.1519	77.3467
298450	14.2823	77.1411	11.5007	74.5172	-16.9885	45.9578	-13.9867	69.9245	-5.21121	71.5567	12.7016	75.607	11.5984	64.1717	-14.9588	77.2058
298451	14.4311	77.3306	11.7068	74.6351	-16.8497	46.1575	-13.752	69.9518	-4.97923	71.5118	12.8878	75.7563	11.6705	64.4013	-14.7658	77.0648
298452	14.5799	77.5201	11.913	74.7528	-16.7104	46.3568	-13.5172	69.9788	-4.74731	71.4666	13.074	75.9055	11.7427	64.6311	-14.5729	76.9239
298453	14.7288	77.7097	12.1194	74.8704	-16.5706	46.5555	-13.2823	70.0053	-4.51545	71.4211	13.2603	76.0546	11.815	64.8608	-14.3801	76.7828
298454	14.8778	77.8993	12.3259	74.9879	-16.4304	46.7538	-13.0475	70.0314	-4.28366	71.3752	13.4468	76.2037	11.8875	65.0905	-14.1874	76.6418
298455	15.0269	78.089	12.5325	75.1053	-16.2897	46.9516	-12.8126	70.0571	-4.05192	71.3291	13.6334	76.3527	11.9601	65.3203	-13.9948	76.5007
298456	15.1762	78.2787	12.7392	75.2225	-16.1486	47.1488	-12.5776	70.0824	-3.82025	71.2827	13.8201	76.5017	12.0328	65.5501	-13.8024	76.3595
298457	15.3255	78.4684	12.946	75.3397	-16.007	47.3456	-12.3426	70.1074	-3.58865	71.236	14.007	76.6507	12.1057	65.7798	-13.61	76.2183
298458	15.4749	78.6582	13.1529	75.4567	-15.865	47.5419	-12.1076	70.132	-3.35711	71.1889	14.1939	76.7996	12.1787	66.0097	-13.4178	76.077
298459	15.6245	78.8481	13.3599	75.5737	-15.7225	47.7377	-11.8726	70.1561	-3.12563	71.1416	14.381	76.9486	12.2519	66.2395	-13.2257	75.9357
298460	15.7741	79.038	13.5671	75.6905	-15.5796	47.933	-11.6375	70.1799	-2.89422	71.0939	14.5682	77.0974	12.3252	66.4694	-13.0337	75.7944
298461	15.9239	79.228	13.7743	75.8073	-15.4362	48.1279	-11.4023	70.2033	-2.66287	71.046	14.7554	77.2463	12.3986	66.6992	-12.8418	75.6529
298462	16.0737	79.418	13.9817	75.9239	-15.2924	48.3222	-11.1672	70.2263	-2.43159	70.9977	14.9428	77.3952	12.4721	66.9291	-12.6501	75.5114
298463	16.2236	79.6081	14.1891	76.0404	-15.1482	48.5161	-10.932	70.249	-2.20038	70.9491	15.1303	77.544	12.5457	67.159	-12.4585	75.3699
298464	16.3736	79.7982	14.3967	76.1569	-15.0035	48.7095	-10.6967	70.2712	-1.96923	70.9002	15.318	77.6928	12.6195	67.389	-12.267	75.2282
298465	16.5237	79.9885	14.6044	76.2733	-14.8584	48.9024	-10.4615	70.2931	-1.73816	70.8509	15.5057	77.8416	12.6934	67.619	-12.0756	75.0865
298466	16.6739	80.1788	14.8122	76.3895	-14.7129	49.0948	-10.2262	70.3147	-1.50715	70.8014	15.6935	77.9904	12.7674	67.849	-11.8843	74.9447
298467	16.8242	80.3692	15.02	76.5057	-14.567	49.2868	-9.99087	70.3358	-1.27621	70.7515	15.8814	78.1392	12.8416	68.079	-11.6932	74.8029
298468	16.9746	80.5596	15.228	76.6218	-14.4206	49.4783	-9.75552	70.3566	-1.04534	70.7014	16.0695	78.288	12.9158	68.309	-11.5022	74.6609
298469	17.125	80.7502	15.4361	76.7379	-14.2738	49.6693	-9.52013	70.377	-0.814547	70.6509	16.2576	78.4368	12.9902	68.5391	-11.3113	74.5189
298470	17.2755	80.9408	15.6443	76.8538	-14.1266	49.8599	-9.28472	70.397	-0.583822	70.6	16.4459	78.5856	13.0647	68.7692	-11.1206	74.3767
298471	17.4261	81.1315	15.8525	76.9697	-13.979	50.05	-9.04927	70.4167	-0.353168	70.5489	16.6342	78.7344	13.1393	68.9993	-10.93	74.2345
298472	17.5768	81.3223	16.0609	77.0855	-13.831	50.2396	-8.8138	70.436	-0.122587	70.4974	16.8226	78.8832	13.2141	69.2295	-10.7395	74.0922
298473	17.7276	81.5132	16.2694	77.2013	-13.6826	50.4288	-8.57829	70.4549	0.10792	70.4456	17.0111	79.032	13.2889	69.4597	-10.5492	73.9498
298474	17.8784	81.7042	16.4779	77.317	-13.5337	50.6176	-8.34276	70.4735	0.338354	70.3934	17.1998	79.1809	13.3639	69.6899	-10.359	73.8073
298475	18.0293	81.8953	16.6866	77.4326	-13.3845	50.8058	-8.10721	70.4917	0.568712	70.341	17.3885	79.3298	13.439	69.9202	-10.1689	73.6647
298476	18.1803	82.0864	16.8954	77.5481	-13.2348	50.9937	-7.87162	70.5096	0.798996	70.2882	17.5773	79.4787	13.5141	70.1505	-9.97898	73.522
298477	18.3314	82.2777	17.1042	77.6637	-13.0848	51.181	-7.63601	70.527	1.0292	70.235	17.7662	79.6276	13.5894	70.3808	-9.7892	73.3791
298478	18.4825	82.4691	17.3132	77.7791	-12.9344	51.3679	-7.40038	70.5442	1.25933	70.1816	17.9552	79.7766	13.6648	70.6112	-9.59955	73.2362
298479	18.6337	82.6606	17.5222	77.8945	-12.7835	51.5544	-7.16472	70.561	1.48939	70.1278	18.1443	79.9256	13.7403	70.8416	-9.41005	73.0932
298480	18.7849	82.8523	17.7313	78.0099	-12.6323	51.7405	-6.92903	70.5774	1.71936	70.0736	18.3334	80.0746	13.8159	71.0721	-9.22069	72.95
298481	18.9362	83.044	17.9405	78.1252	-12.4807	51.926	-6.69333	70.5934	1.94926	70.0191	18.5227	80.2237	13.8917	71.3025	-9.03147	72.8067
298482	19.0876	83.2359	18.1498	78.2405	-12.3287	52.1112	-6.4576	70.6091	2.17908	69.9643	18.712	80.3728	13.9675	71.5331	-8.8424	72.6633
298483	19.2391	83.4278	18.3592	78.3557	-12.1763	52.2959	-6.22184	70.6245	2.40881	69.9091	18.9014	80.522	14.0434	71.7636	-8.65348	72.5198
298484	19.3906	83.62	18.5687	78.4709	-12.0236	52.4802	-5.98606	70.6395	2.63847	69.8536	19.0909	80.6712	14.1194	71.9942	-8.46471	72.3761
298485	19.5421	83.8122	18.7783	78.5861	-11.8704	52.664	-5.75027	70.6542	2.86804	69.7977	19.2805	80.8205	14.1956	72.2249	-8.27609	72.2323
298486	19.6937	84.0045	18.9879	78.7012	-11.7169	52.8474	-5.51445	70.6685	3.09754	69.7415	19.4702	80.9698	14.2718	72.4556	-8.08762	72.0884
298487	19.8454	84.1971	19.1976	78.8163	-11.563	53.0304	-5.27861	70.6824	3.32694	69.6849	19.6599	81.1192	14.3481	72.6863	-7.8993	71.9443
298488	19.9971	84.3897	19.4075	78.9314	-11.4088	53.213	-5.04275	70.696	3.55627	69.6279	19.8498	81.2687	14.4245	72.9171	-7.71113	71.8001
298489	20.1489	84.5825	19.6173	79.0465	-11.2542	53.3951	-4.80687	70.7093	3.78551	69.5707	20.0397	81.4182	14.501	73.1479	-7.52313	71.6557
298490	20.3007	84.7754	19.8273	79.1616	-11.0992	53.5768	-4.57097	70.7222	4.01466	69.513	20.2296	81.5678	14.5776	73.3788	-7.33528	71.5112
298491	20.4525	84.9685	20.0374	79.2766	-10.9438	53.7581	-4.33505	70.7348	4.24373	69.455	20.4197	81.7175	14.6543	73.6097	-7.14758	71.3666
298492	20.6044	85.1617	20.2475	79.3916	-10.7881	53.939	-4.09912	70.747	4.47271	69.3966	20.6098	81.8673	14.7311	73.8407	-6.96005	71.2218
298493	20.7564	85.3551	20.4578	79.5066	-10.632	54.1195	-3.86317	70.7588	4.70161	69.3379	20.8	82.0171	14.808	74.0717	-6.77268	71.0768
298494	20.9084	85.5486	20.6681	79.6217	-10.4756	54.2996	-3.6272	70.7704	4.93041	69.2788	20.9902	82.1671	14.885	74.3028	-6.58547	70.9317
298495	21.0604	85.7423	20.8784	79.7367	-10.3188	54.4792	-3.39121	70.7816	5.15913	69.2193	21.1806	82.3171	14.962	74.5339	-6.39842	70.7865
298496	21.2125	85.9362	21.0889	79.8517	-10.1617	54.6584	-3.15521	70.7924	5.38776	69.1595	21.371	82.4672	15.0391	74.7651	-6.21154	70.641
298497	21.3646	86.1302	21.2994	79.9667	-10.0042	54.8373	-2.91919	70.8029	5.61629	69.0993	21.5614	82.6175	15.1164	74.9963	-6.02482	70.4955
298498	21.5167	86.3244	21.51	80.0817	-9.84642	55.0157	-2.68316	70.8131	5.84474	69.0387	21.752	82.7678	15.1937	75.2276	-5.83827	70.3497
298499	21.6689	86.5188	21.7207	80.1968	-9.68825	55.1938	-2.44711	70.8229	6.07309	68.9777	21.9426	82.9182	15.2711	75.4589	-5.6519	70.2038
298500	21.8211	86.7133	21.9314	80.3118	-9.52973	55.3714	-2.21105	70.8324	6.30134	68.9164	22.1332	83.0688	15.3485	75.6903	-5.46569	70.0576
298501	21.9733	86.9081	22.1423	80.4269	-9.37088	55.5486	-1.97497	70.8415	6.52951	68.8547	22.3239	83.2194	15.4261	75.9218	-5.27965	69.9114
298502	22.1256	87.103	22.3531	80.542	-9.21169	55.7255	-1.73889	70.8503	6.75758	68.7926	22.5147	83.3702	15.5037	76.1533	-5.09379	69.7649
298503	22.2779	87.2981	22.5641	80.6571	-9.05217	55.9019	-1.50278	70.8588	6.98555	68.7301	22.7055	83.5211	15.5815	76.3848	-4.9081	69.6183
298504	22.4302	87.4934	22.7751	80.7722	-8.89231	56.078	-1.26667	70.8669	7.21342	68.6672	22.8964	83.6721	15.6592	76.6165	-4.72259	69.4715
298505	22.5826	87.6889	22.9862	80.8874	-8.73212	56.2537	-1.03055	70.8747	7.4412	68.6039	23.0874	83.8233	15.7371	76.8482	-4.53726	69.3244
298506	22.7349	87.8845	23.1974	81.0026	-8.5716	56.429	-0.794412	70.8821	7.66888	68.5402	23.2784	83.9746	15.815	77.0799	-4.35211	69.1772
298507	22.8873	88.0804	23.4087	81.1178	-8.41076	56.6039	-0.558265	70.8892	7.89646	68.4762	23.4694	84.126	15.893	77.3117	-4.16713	69.0298
298508	23.0397	88.2765	23.62	81.2331	-8.24959	56.7785	-0.322109	70.896	8.12394	68.4117	23.6605	84.2776	15.9711	77.5436	-3.98234	68.8822
298509	23.1921	88.4728	23.8313	81.3484	-8.0881	56.9527	-0.0859431	70.9024	8.35132	68.3468	23.8517	84.4293	16.0493	77.7755	-3.79773	68.7345
298510	23.3445	88.6693	24.0428	81.4638	-7.92629	57.1265	0.150232	70.9085	8.57859	68.2816	24.0429	84.5812	16.1275	78.0075	-3.61331	68.5865
298511	23.4969	88.866	24.2543	81.5792	-7.76416	57.2999	0.386416	70.9143	8.80577	68.2159	24.2341	84.7332	16.2058	78.2396	-3.42908	68.4383
298512	23.6494	89.063	24.4658	81.6947	-7.60172	57.473	0.622608	70.9197	9.03284	68.1498	24.4254	84.8854	16.2841	78.4718	-3.24503	68.2899
298513	23.8019	89.2601	24.6775	81.8102	-7.43896	57.6457	0.858808	70.9248	9.2598	68.0833	24.6168	85.0377	16.3625	78.704	-3.06117	68.1413
298514	23.9543	89.4575	24.8892	81.9258	-7.2759	57.818	1.09502	70.9295	9.48666	68.0164	24.8082	85.1902	16.441	78.9363	-2.87751	67.9925
298515	24.1068	89.6551	25.1009	82.0414	-7.11252	57.99	1.33123	70.9339	9.71341	67.9491	24.9996	85.3429	16.5195	79.1686	-2.69403	67.8434
298516	24.2593	89.853	25.3127	82.1572	-6.94884	58.1616	1.56745	70.938	9.94005	67.8813	25.1911	85.4957	16.5982	79.4011	-2.51075	67.6942
298517	24.4117	90.0511	25.5246	82.2729	-6.78485	58.3329	1.80367	70.9417	10.1666	67.8132	25.3826	85.6488	16.6768	79.6336	-2.32767	67.5447
298518	24.5642	90.2494	25.7365	82.3888	-6.62056	58.5038	2.03991	70.9451	10.393	67.7446	25.5741	85.802	16.7555	79.8661	-2.14478	67.395
298519	24.7167	90.448	25.9485	82.5047	-6.45596	58.6743	2.27614	70.9482	10.6193	67.6756	25.7657	85.9554	16.8343	80.0988	-1.96209	67.2451
298520	24.8691	90.6468	26.1605	82.6208	-6.29108	58.8445	2.51238	70.9509	10.8455	67.6061	25.9574	86.109	16.9132	80.3315	-1.7796	67.0949
298521	25.0216	90.8458	26.3726	82.7369	-6.12589	59.0144	2.74863	70.9533	11.0716	67.5362	26.149	86.2628	16.992	80.5643	-1.59731	66.9446
298522	25.174	91.0452	26.5848	82.8531	-5.96041	59.1839	2.98487	70.9554	11.2976	67.4659	26.3407	86.4168	17.071	80.7972	-1.41523	66.794
298523	25.3265	91.2448	26.797	82.9694	-5.79463	59.3531	3.22112	70.9571	11.5234	67.3951	26.5325	86.571	17.15	81.0302	-1.23335	66.6431
298524	25.4789	91.4446	27.0092	83.0857	-5.62857	59.522	3.45738	70.9585	11.7492	67.3239	26.7242	86.7254	17.229	81.2632	-1.05168	66.492
298525	25.6313	91.6447	27.2215	83.2022	-5.46222	59.6905	3.69363	70.9595	11.9748	67.2523	26.916	86.88	17.3081	81.4964	-0.870217	66.3407
298526	25.7837	91.8451	27.4339	83.3188	-5.29558	59.8587	3.92989	70.9602	12.2003	67.1802	27.1078	87.0348	17.3873	81.7296	-0.688963	66.1891
298527	25.9361	92.0458	27.6463	83.4355	-5.12866	60.0265	4.16615	70.9606	12.4257	67.1076	27.2997	87.1899	17.4664	81.9629	-0.50792	66.0373
298528	26.0885	92.2467	27.8588	83.5523	-4.96145	60.1941	4.4024	70.9606	12.651	67.0346	27.4915	87.3452	17.5457	82.1962	-0.327091	65.8852
298529	26.2408	92.4479	28.0713	83.6692	-4.79396	60.3613	4.63866	70.9603	12.8761	66.9612	27.6834	87.5007	17.625	82.4297	-0.146476	65.7329
298530	26.3931	92.6494	28.2838	83.7863	-4.6262	60.5281	4.87492	70.9597	13.1011	66.8872	27.8754	87.6565	17.7043	82.6633	0.0339232	65.5803
298531	26.5454	92.8512	28.4964	83.9034	-4.45816	60.6947	5.11118	70.9587	13.326	66.8128	28.0673	87.8125	17.7837	82.8969	0.214104	65.4275
298532	26.6977	93.0533	28.7091	84.0207	-4.28984	60.8609	5.34743	70.9574	13.5508	66.738	28.2592	87.9688	17.8631	83.1306	0.394066	65.2744
298533	26.8499	93.2557	28.9218	84.1382	-4.12125	61.0269	5.58368	70.9557	13.7755	66.6626	28.4512	88.1253	17.9425	83.3644	0.573806	65.1211
298534	27.0022	93.4584	29.1345	84.2557	-3.9524	61.1925	5.81994	70.9537	14	66.5868	28.6432	88.282	18.022	83.5983	0.753324	64.9674
298535	27.1543	93.6613	29.3473	84.3734	-3.78327	61.3578	6.05618	70.9514	14.2244	66.5106	28.8352	88.4391	18.1015	83.8323	0.932616	64.8136
298536	27.3065	93.8646	29.5602	84.4913	-3.61388	61.5228	6.29243	70.9487	14.4486	66.4338	29.0272	88.5964	18.1811	84.0664	1.11168	64.6594
298537	27.4586	94.0683	29.773	84.6093	-3.44422	61.6875	6.52867	70.9457	14.6728	66.3565	29.2193	88.7539	18.2606	84.3006	1.29052	64.505
298538	27.6106	94.2722	29.9859	84.7274	-3.27429	61.8519	6.76491	70.9423	14.8968	66.2788	29.4113	88.9118	18.3403	84.5349	1.46913	64.3502
298539	27.7627	94.4764	30.1989	84.8457	-3.10411	62.016	7.00114	70.9386	15.1206	66.2006	29.6034	89.0699	18.4199	84.7693	1.64751	64.1953
298540	27.9147	94.681	30.4119	84.9642	-2.93367	62.1798	7.23736	70.9345	15.3444	66.1218	29.7955	89.2283	18.4996	85.0038	1.82565	64.04
298541	28.0666	94.8859	30.6249	85.0828	-2.76297	62.3433	7.47358	70.9301	15.5679	66.0426	29.9875	89.3871	18.5793	85.2383	2.00356	63.8844
298542	28.2185	95.0912	30.838	85.2016	-2.59201	62.5065	7.7098	70.9254	15.7914	65.9629	30.1796	89.5461	18.6591	85.473	2.18124	63.7286
298543	28.3703	95.2968	31.0511	85.3206	-2.4208	62.6694	7.94601	70.9203	16.0147	65.8826	30.3717	89.7054	18.7388	85.7078	2.35867	63.5724
298544	28.5221	95.5027	31.2643	85.4397	-2.24934	62.8321	8.18221	70.9149	16.2379	65.8019	30.5638	89.865	18.8186	85.9427	2.53587	63.416
298545	28.6739	95.709	31.4774	85.559	-2.07763	62.9944	8.4184	70.9091	16.4609	65.7206	30.7559	90.025	18.8984	86.1776	2.71282	63.2593
298546	28.8256	95.9156	31.6907	85.6786	-1.90567	63.1565	8.65458	70.903	16.6838	65.6388	30.948	90.1852	18.9782	86.4127	2.88953	63.1022
298547	28.9772	96.1226	31.9039	85.7983	-1.73346	63.3183	8.89076	70.8965	16.9066	65.5565	31.1401	90.3458	19.0581	86.6479	3.066	62.9449
298548	29.1288	96.3299	32.1172	85.9182	-1.56101	63.4798	9.12693	70.8897	17.1292	65.4737	31.3321	90.5067	19.138	86.8832	3.24221	62.7873
298549	29.2803	96.5376	32.3305	86.0383	-1.38832	63.6411	9.36308	70.8825	17.3516	65.3903	31.5242	90.668	19.2179	87.1186	3.41818	62.6294
298550	29.4317	96.7457	32.5438	86.1586	-1.21538	63.8021	9.59923	70.8749	17.5739	65.3064	31.7163	90.8296	19.2978	87.3541	3.5939	62.4711
298551	29.5831	96.9541	32.7572	86.2792	-1.04221	63.9628	9.83536	70.8671	17.7961	65.2219	31.9084	90.9915	19.3777	87.5898	3.76936	62.3125
298552	29.7344	97.163	32.9706	86.3999	-0.868797	64.1232	10.0715	70.8588	18.0181	65.1369	32.1004	91.1538	19.4576	87.8255	3.94457	62.1537
298553	29.8857	97.3722	33.184	86.5209	-0.695149	64.2834	10.3076	70.8502	18.2399	65.0514	32.2925	91.3165	19.5376	88.0613	4.11953	61.9945
298554	30.0368	97.5818	33.3975	86.6421	-0.521267	64.4433	10.5437	70.8413	18.4616	64.9653	32.4845	91.4795	19.6175	88.2973	4.29422	61.835
298555	30.1879	97.7918	33.611	86.7635	-0.347153	64.603	10.7798	70.832	18.6832	64.8787	32.6765	91.6429	19.6975	88.5334	4.46866	61.6751
298556	30.339	98.0022	33.8245	86.8852	-0.172808	64.7624	11.0159	70.8223	18.9046	64.7915	32.8685	91.8067	19.7775	88.7696	4.64283	61.515
298557	30.4899	98.2129	34.038	87.0071	0.00176613	64.9216	11.2519	70.8123	19.1258	64.7037	33.0605	91.9708	19.8575	89.0059	4.81674	61.3545
298558	30.6408	98.4241	34.2516	87.1292	0.176567	65.0805	11.488	70.8019	19.3469	64.6154	33.2525	92.1354	19.9375	89.2423	4.99039	61.1937
298559	30.7916	98.6357	34.4652	87.2516	0.351594	65.2392	11.724	70.7912	19.5678	64.5265	33.4444	92.3003	20.0175	89.4788	5.16376	61.0325
298560	30.9423	98.8477	34.6788	87.3743	0.526844	65.3976	11.96	70.7801	19.7885	64.437	33.6363	92.4657	20.0975	89.7155	5.33687	60.871
298561	31.0929	99.0602	34.8924	87.4972	0.702317	65.5558	12.196	70.7686	20.0091	64.3469	33.8282	92.6314	20.1775	89.9523	5.5097	60.7092
298562	31.2434	99.273	35.1061	87.6204	0.87801	65.7137	12.432	70.7568	20.2295	64.2562	34.0201	92.7976	20.2575	90.1891	5.68226	60.547
298563	31.3938	99.4863	35.3197	87.7439	1.05392	65.8714	12.668	70.7446	20.4497	64.165	34.212	92.9642	20.3375	90.4262	5.85455	60.3845
298564	31.5441	99.7	35.5334	87.8676	1.23005	66.0289	12.9039	70.732	20.6698	64.0731	34.4038	93.1312	20.4175	90.6633	6.02656	60.2216
298565	31.6944	99.9142	35.7471	87.9917	1.4064	66.1861	13.1398	70.7191	20.8897	63.9807	34.5956	93.2987	20.4975	90.9006	6.19829	60.0584
298566	31.8445	100.129	35.9608	88.116	1.58295	66.3431	13.3758	70.7058	21.1094	63.8876	34.7873	93.4666	20.5774	91.138	6.36974	59.8949
298567	31.9946	100.344	36.1746	88.2406	1.75972	66.4999	13.6116	70.6921	21.329	63.7939	34.979	93.635	20.6574	91.3755	6.5409	59.731
298568	32.1445	100.559	36.3883	88.3656	1.93671	66.6565	13.8475	70.678	21.5484	63.6996	35.1707	93.8038	20.7374	91.6132	6.71178	59.5667
298569	32.2944	100.775	36.6021	88.4908	2.1139	66.8128	14.0834	70.6636	21.7676	63.6047	35.3624	93.973	20.8174	91.8509	6.88237	59.402
298570	32.4441	100.992	36.8158	88.6164	2.29129	66.969	14.3192	70.6488	21.9866	63.5092	35.554	94.1428	20.8973	92.0889	7.05267	59.237
298571	32.5937	101.209	37.0296	88.7422	2.4689	67.1249	14.555	70.6336	22.2054	63.413	35.7455	94.313	20.9773	92.3269	7.22268	59.0717
298572	32.7432	101.426	37.2434	88.8684	2.6467	67.2806	14.7908	70.6181	22.4241	63.3162	35.937	94.4837	21.0572	92.5651	7.3924	58.9059
298573	32.8926	101.644	37.4572	88.995	2.82471	67.4361	15.0266	70.6021	22.6425	63.2188	36.1285	94.6549	21.1371	92.8034	7.56182	58.7398
298574	33.0418	101.862	37.6711	89.1219	3.00293	67.5914	15.2623	70.5858	22.8608	63.1207	36.32	94.8266	21.217	93.0418	7.73094	58.5733
298575	33.191	102.081	37.8849	89.2491	3.18134	67.7464	15.498	70.5691	23.0789	63.0219	36.5113	94.9988	21.2969	93.2804	7.89976	58.4065
298576	33.34	102.3	38.0987	89.3767	3.35995	67.9013	15.7337	70.552	23.2968	62.9225	36.7027	95.1715	21.3767	93.5191	8.06828	58.2393
298577	33.4889	102.52	38.3125	89.5046	3.53875	68.056	15.9694	70.5345	23.5145	62.8224	36.8939	95.3447	21.4566	93.758	8.2365	58.0716
298578	33.6377	102.74	38.5264	89.6329	3.71775	68.2105	16.205	70.5166	23.732	62.7217	37.0852	95.5185	21.5364	93.997	8.40441	57.9036
298579	33.7864	102.961	38.7402	89.7616	3.89694	68.3648	16.4407	70.4983	23.9493	62.6202	37.2764	95.6928	21.6162	94.2361	8.57201	57.7352
298580	33.9349	103.182	38.954	89.8907	4.07633	68.5189	16.6762	70.4797	24.1664	62.5181	37.4675	95.8676	21.6959	94.4754	8.7393	57.5665
298581	34.0833	103.404	39.1679	90.0201	4.2559	68.6728	16.9118	70.4606	24.3833	62.4153	37.6585	96.043	21.7757	94.7148	8.90628	57.3973
298582	34.2315	103.626	39.3817	90.15	4.43566	68.8265	17.1473	70.4411	24.6	62.3118	37.8495	96.219	21.8554	94.9544	9.07295	57.2277
298583	34.3796	103.849	39.5956	90.2802	4.61561	68.9801	17.3829	70.4212	24.8165	62.2077	38.0404	96.3955	21.9351	95.1941	9.23929	57.0577
298584	34.5276	104.073	39.8094	90.4109	4.79575	69.1334	17.6183	70.401	25.0328	62.1028	38.2313	96.5726	22.0147	95.434	9.40532	56.8874
298585	34.6754	104.297	40.0232	90.5419	4.97607	69.2866	17.8538	70.3803	25.2489	61.9972	38.4221	96.7503	22.0944	95.674	9.57102	56.7166
298586	34.8231	104.521	40.2371	90.6734	5.15657	69.4397	18.0892	70.3592	25.4648	61.8908	38.6128	96.9286	22.174	95.9142	9.7364	56.5454
298587	34.9706	104.746	40.4509	90.8054	5.33725	69.5925	18.3246	70.3377	25.6804	61.7838	38.8034	97.1075	22.2535	96.1544	9.90146	56.3738
298588	35.1179	104.972	40.6647	90.9377	5.51812	69.7452	18.5599	70.3158	25.8959	61.676	38.994	97.287	22.333	96.3949	10.0662	56.2018
298589	35.2651	105.198	40.8785	91.0706	5.69916	69.8977	18.7953	70.2935	26.1111	61.5675	39.1845	97.4671	22.4125	96.6355	10.2306	56.0294
298590	35.4122	105.425	41.0923	91.2039	5.88038	70.05	19.0306	70.2707	26.3261	61.4583	39.3749	97.6478	22.492	96.8763	10.3947	55.8566
298591	35.5591	105.652	41.3061	91.3376	6.06177	70.2022	19.2658	70.2476	26.5408	61.3483	39.5653	97.8292	22.5714	97.1172	10.5584	55.6833
298592	35.7058	105.88	41.5199	91.4718	6.24334	70.3542	19.501	70.224	26.7554	61.2375	39.7555	98.0112	22.6507	97.3583	10.7218	55.5097
298593	35.8524	106.108	41.7336	91.6065	6.42507	70.5061	19.7362	70.2	26.9697	61.126	39.9457	98.1939	22.73	97.5995	10.8848	55.3356
298594	35.9988	106.337	41.9474	91.7417	6.60698	70.6578	19.9714	70.1755	27.1838	61.0137	40.1358	98.3772	22.8093	97.8409	11.0475	55.1611
298595	36.145	106.567	42.1611	91.8774	6.78906	70.8094	20.2065	70.1507	27.3977	60.9006	40.3258	98.5612	22.8885	98.0824	11.2099	54.9861
298596	36.291	106.797	42.3748	92.0136	6.97131	70.9608	20.4416	70.1254	27.6113	60.7868	40.5157	98.7459	22.9677	98.3241	11.3719	54.8107
298597	36.4369	107.028	42.5885	92.1503	7.15372	71.1121	20.6766	70.0996	27.8247	60.6722	40.7055	98.9313	23.0469	98.566	11.5336	54.6349
298598	36.5826	107.26	42.8022	92.2875	7.3363	71.2632	20.9116	70.0734	28.0378	60.5567	40.8952	99.1174	23.1259	98.808	11.6949	54.4586
298599	36.7281	107.492	43.0159	92.4253	7.51904	71.4142	21.1466	70.0468	28.2507	60.4405	41.0848	99.3042	23.205	99.0502	11.8559	54.282
298600	36.8734	107.724	43.2295	92.5636	7.70194	71.5651	21.3815	70.0198	28.4634	60.3235	41.2743	99.4917	23.284	99.2925	12.0165	54.1048
298601	37.0185	107.958	43.4431	92.7025	7.88501	71.7158	21.6164	69.9922	28.6758	60.2056	41.4637	99.68	23.3629	99.535	12.1767	53.9272
298602	37.1635	108.192	43.6567	92.8419	8.06823	71.8664	21.8512	69.9643	28.888	60.0869	41.653	99.869	23.4417	99.7777	12.3366	53.7492
298603	37.3082	108.426	43.8703	92.9819	8.25161	72.0169	22.086	69.9359	29.0999	59.9674	41.8422	100.059	23.5205	100.021	12.4961	53.5707
298604	37.4528	108.661	44.0838	93.1225	8.43515	72.1672	22.3208	69.907	29.3115	59.8471	42.0313	100.249	23.5993	100.264	12.6553	53.3918
298605	37.5971	108.897	44.2973	93.2637	8.61885	72.3174	22.5555	69.8777	29.5229	59.7259	42.2202	100.441	23.678	100.507	12.8141	53.2124
298606	37.7413	109.134	44.5108	93.4055	8.80269	72.4675	22.7902	69.8479	29.734	59.6038	42.4091	100.633	23.7566	100.75	12.9725	53.0325
298607	37.8852	109.371	44.7243	93.5479	8.98669	72.6175	23.0248	69.8176	29.9449	59.4809	42.5978	100.825	23.8352	100.994	13.1305	52.8522
298608	38.0289	109.609	44.9377	93.6909	9.17084	72.7674	23.2594	69.7869	30.1555	59.3571	42.7864	101.019	23.9137	101.237	13.2882	52.6714
298609	38.1724	109.847	45.151	93.8346	9.35514	72.9172	23.4939	69.7557	30.3658	59.2324	42.9749	101.214	23.9921	101.481	13.4455	52.4902
298610	38.3157	110.087	45.3644	93.9789	9.53959	73.0668	23.7284	69.724	30.5759	59.1069	43.1632	101.409	24.0705	101.725	13.6024	52.3085
298611	38.4588	110.327	45.5777	94.1239	9.72419	73.2164	23.9628	69.6919	30.7857	58.9805	43.3514	101.605	24.1487	101.969	13.7589	52.1263
298612	38.6016	110.567	45.791	94.2695	9.90893	73.3658	24.1972	69.6592	30.9952	58.8531	43.5395	101.802	24.227	102.214	13.915	51.9437
298613	38.7443	110.808	46.0042	94.4158	10.0938	73.5152	24.4316	69.6261	31.2044	58.7249	43.7275	102	24.3051	102.459	14.0708	51.7605
298614	38.8867	111.05	46.2174	94.5629	10.2788	73.6644	24.6659	69.5925	31.4134	58.5957	43.9153	102.199	24.3832	102.703	14.2261	51.5769
298615	39.0288	111.293	46.4305	94.7106	10.464	73.8136	24.9001	69.5584	31.622	58.4656	44.103	102.398	24.4612	102.948	14.3811	51.3928
298616	39.1708	111.537	46.6436	94.859	10.6493	73.9626	25.1343	69.5238	31.8304	58.3346	44.2905	102.599	24.5391	103.193	14.5356	51.2083
298617	39.3124	111.781	46.8567	95.0082	10.8348	74.1116	25.3684	69.4886	32.0384	58.2026	44.4779	102.8	24.617	103.439	14.6898	51.0232
298618	39.4539	112.026	47.0697	95.1581	11.0204	74.2605	25.6025	69.453	32.2462	58.0697	44.6651	103.002	24.6947	103.684	14.8436	50.8377
298619	39.5951	112.271	47.2826	95.3088	11.2061	74.4093	25.8365	69.4169	32.4537	57.9358	44.8522	103.206	24.7724	103.93	14.9969	50.6516
298620	39.7361	112.518	47.4955	95.4602	11.3919	74.5581	26.0705	69.3802	32.6608	57.801	45.0391	103.41	24.85	104.176	15.1499	50.4651
298621	39.8768	112.765	47.7083	95.6124	11.5779	74.7067	26.3044	69.3431	32.8677	57.6651	45.2259	103.615	24.9275	104.422	15.3024	50.2781
298622	40.0172	113.013	47.9211	95.7654	11.764	74.8553	26.5383	69.3054	33.0742	57.5283	45.4125	103.821	25.005	104.668	15.4545	50.0906
298623	40.1574	113.261	48.1339	95.9192	11.9503	75.0038	26.7721	69.2672	33.2804	57.3905	45.5989	104.029	25.0823	104.914	15.6062	49.9025
298624	40.2973	113.511	48.3465	96.0739	12.1367	75.1523	27.0058	69.2284	33.4864	57.2517	45.7852	104.237	25.1595	105.161	15.7575	49.714
298625	40.437	113.761	48.5591	96.2294	12.3232	75.3007	27.2395	69.1891	33.6919	57.1119	45.9713	104.446	25.2367	105.408	15.9084	49.525
298626	40.5764	114.012	48.7717	96.3857	12.5098	75.449	27.4731	69.1493	33.8972	56.971	46.1572	104.656	25.3138	105.655	16.0588	49.3354
298627	40.7155	114.263	48.9842	96.5429	12.6966	75.5973	27.7067	69.1089	34.1021	56.8291	46.343	104.867	25.3908	105.902	16.2089	49.1454
298628	40.8544	114.516	49.1966	96.701	12.8835	75.7455	27.9402	69.068	34.3067	56.6862	46.5285	105.08	25.4677	106.149	16.3585	48.9548
298629	40.9929	114.769	49.4089	96.86	13.0705	75.8936	28.1736	69.0265	34.511	56.5422	46.7139	105.293	25.5444	106.397	16.5076	48.7638
298630	41.1312	115.023	49.6212	97.0199	13.2576	76.0417	28.407	68.9845	34.7149	56.3972	46.8991	105.507	25.6211	106.645	16.6563	48.5722
298631	41.2692	115.278	49.8334	97.1807	13.4449	76.1898	28.6403	68.9419	34.9185	56.2511	47.0841	105.723	25.6977	106.893	16.8046	48.3801
298632	41.4069	115.534	50.0455	97.3425	13.6323	76.3378	28.8735	68.8987	35.1218	56.1039	47.2689	105.94	25.7742	107.141	16.9524	48.1874
298633	41.5443	115.791	50.2576	97.5052	13.8197	76.4858	29.1067	68.855	35.3246	55.9556	47.4534	106.157	25.8506	107.389	17.0998	47.9943
298634	41.6814	116.048	50.4695	97.669	14.0073	76.6337	29.3397	68.8107	35.5272	55.8062	47.6378	106.376	25.9269	107.638	17.2468	47.8006
298635	41.8183	116.306	50.6814	97.8337	14.1951	76.7816	29.5728	68.7658	35.7293	55.6557	47.822	106.596	26.0031	107.887	17.3933	47.6064
298636	41.9548	116.565	50.8932	97.9994	14.3829	76.9295	29.8057	68.7203	35.9312	55.5041	48.006	106.818	26.0791	108.136	17.5393	47.4117
298637	42.091	116.825	51.1049	98.1662	14.5709	77.0773	30.0386	68.6742	36.1326	55.3514	48.1897	107.04	26.1551	108.385	17.6849	47.2164
298638	42.2268	117.086	51.3165	98.334	14.7589	77.2252	30.2714	68.6275	36.3337	55.1975	48.3733	107.264	26.231	108.634	17.8301	47.0206
298639	42.3624	117.348	51.5281	98.5029	14.9471	77.373	30.5041	68.5802	36.5344	55.0425	48.5566	107.489	26.3067	108.884	17.9747	46.8243
298640	42.4977	117.61	51.7395	98.6729	15.1354	77.5208	30.7368	68.5322	36.7347	54.8863	48.7397	107.715	26.3823	109.133	18.1189	46.6274
298641	42.6326	117.874	51.9509	98.844	15.3238	77.6685	30.9694	68.4837	36.9346	54.7289	48.9225	107.942	26.4578	109.383	18.2627	46.43
298642	42.7672	118.138	52.1621	99.0162	15.5122	77.8163	31.2019	68.4346	37.1341	54.5704	49.1051	108.171	26.5332	109.634	18.406	46.2321
298643	42.9014	118.403	52.3732	99.1896	15.7008	77.964	31.4343	68.3847	37.3333	54.4106	49.2875	108.401	26.6085	109.884	18.5487	46.0335
298644	43.0354	118.669	52.5843	99.3641	15.8895	78.1118	31.6667	68.3343	37.532	54.2497	49.4696	108.632	26.6837	110.135	18.6911	45.8345
298645	43.1689	118.936	52.7952	99.5398	16.0783	78.2595	31.8989	68.2833	37.7304	54.0875	49.6515	108.865	26.7587	110.386	18.8329	45.6349
298646	43.3022	119.204	53.006	99.7168	16.2673	78.4072	32.1311	68.2315	37.9283	53.9241	49.8332	109.098	26.8336	110.637	18.9743	45.4348
298647	43.4351	119.473	53.2167	99.895	16.4563	78.555	32.3632	68.1792	38.1259	53.7594	50.0145	109.334	26.9084	110.888	19.1151	45.2341
298648	43.5676	119.743	53.4273	100.074	16.6454	78.7027	32.5952	68.1261	38.323	53.5935	50.1956	109.57	26.9831	111.139	19.2555	45.0328
298649	43.6998	120.013	53.6378	100.255	16.8346	78.8505	32.8271	68.0724	38.5197	53.4264	50.3765	109.808	27.0576	111.391	19.3954	44.831
298650	43.8316	120.285	53.8482	100.437	17.0239	78.9983	33.059	68.018	38.7159	53.258	50.557	110.048	27.132	111.643	19.5348	44.6286
298651	43.9631	120.557	54.0584	100.621	17.2133	79.146	33.2907	67.963	38.9118	53.0883	50.7373	110.289	27.2063	111.895	19.6737	44.4257
298652	44.0941	120.831	54.2685	100.805	17.4027	79.2939	33.5224	67.9072	39.1072	52.9172	50.9173	110.531	27.2805	112.147	19.8121	44.2222
298653	44.2249	121.105	54.4785	100.991	17.5923	79.4417	33.754	67.8508	39.3021	52.7449	51.0971	110.775	27.3545	112.4	19.95	44.0182
298654	44.3552	121.38	54.6883	101.179	17.782	79.5895	33.9854	67.7936	39.4966	52.5713	51.2765	111.02	27.4284	112.653	20.0874	43.8136
298655	44.4851	121.657	54.8981	101.368	17.9718	79.7374	34.2168	67.7357	39.6907	52.3963	51.4557	111.267	27.5021	112.906	20.2243	43.6084
298656	44.6147	121.934	55.1076	101.558	18.1616	79.8854	34.4481	67.6772	39.8843	52.22	51.6345	111.515	27.5757	113.159	20.3606	43.4026
298657	44.7439	122.212	55.3171	101.75	18.3515	80.0333	34.6793	67.6179	40.0774	52.0423	51.813	111.765	27.6492	113.412	20.4965	43.1963
298658	44.8726	122.492	55.5263	101.943	18.5416	80.1813	34.9104	67.5578	40.2701	51.8633	51.9913	112.017	27.7225	113.666	20.6318	42.9894
298659	45.001	122.772	55.7355	102.138	18.7317	80.3294	35.1413	67.497	40.4623	51.6828	52.1692	112.27	27.7957	113.92	20.7666	42.782
298660	45.129	123.053	55.9444	102.335	18.9219	80.4774	35.3722	67.4355	40.654	51.501	52.3467	112.525	27.8688	114.174	20.9009	42.5739
298661	45.2565	123.335	56.1532	102.533	19.1121	80.6256	35.603	67.3732	40.8452	51.3178	52.524	112.781	27.9417	114.428	21.0346	42.3653
298662	45.3837	123.619	56.3619	102.732	19.3025	80.7738	35.8337	67.3101	41.036	51.1331	52.7009	113.039	28.0144	114.683	21.1679	42.1561
298663	45.5104	123.903	56.5704	102.934	19.4929	80.922	36.0643	67.2463	41.2262	50.947	52.8775	113.299	28.087	114.938	21.3005	41.9463
298664	45.6367	124.188	56.7787	103.137	19.6835	81.0703	36.2947	67.1817	41.416	50.7595	53.0537	113.56	28.1595	115.193	21.4327	41.736
298665	45.7626	124.475	56.9869	103.341	19.8741	81.2187	36.5251	67.1163	41.6052	50.5705	53.2296	113.823	28.2318	115.448	21.5643	41.525
298666	45.888	124.762	57.1948	103.548	20.0647	81.3671	36.7553	67.0501	41.7939	50.38	53.4051	114.088	28.3039	115.703	21.6953	41.3135
298667	46.013	125.05	57.4026	103.756	20.2555	81.5157	36.9854	66.983	41.9821	50.1881	53.5803	114.355	28.3759	115.959	21.8258	41.1014
298668	46.1376	125.34	57.6102	103.966	20.4463	81.6643	37.2154	66.9152	42.1698	49.9947	53.755	114.623	28.4477	116.215	21.9558	40.8887
298669	46.2617	125.63	57.8176	104.178	20.6372	81.8129	37.4453	66.8465	42.357	49.7997	53.9295	114.893	28.5194	116.471	22.0852	40.6754
298670	46.3854	125.922	58.0249	104.392	20.8282	81.9617	37.6751	66.7771	42.5436	49.6032	54.1035	115.165	28.5909	116.728	22.214	40.4615
298671	46.5086	126.215	58.2319	104.608	21.0192	82.1105	37.9048	66.7067	42.7296	49.4052	54.2771	115.439	28.6623	116.984	22.3423	40.2471
298672	46.6313	126.508	58.4387	104.826	21.2103	82.2595	38.1343	66.6355	42.9151	49.2056	54.4504	115.715	28.7335	117.241	22.47	40.032
298673	46.7536	126.803	58.6453	105.046	21.4015	82.4085	38.3637	66.5634	43.1001	49.0045	54.6232	115.993	28.8045	117.498	22.5971	39.8164
298674	46.8754	127.099	58.8517	105.267	21.5927	82.5576	38.593	66.4905	43.2845	48.8018	54.7956	116.272	28.8754	117.755	22.7237	39.6001
298675	46.9967	127.396	59.0579	105.491	21.784	82.7068	38.8222	66.4167	43.4683	48.5975	54.9676	116.554	28.946	118.013	22.8497	39.3833
298676	47.1176	127.694	59.2638	105.718	21.9754	82.8561	39.0512	66.3419	43.6515	48.3916	55.1392	116.838	29.0166	118.271	22.9751	39.1658
298677	47.2379	127.993	59.4695	105.946	22.1668	83.0056	39.2801	66.2663	43.8342	48.1841	55.3104	117.124	29.0869	118.529	23.0999	38.9478
298678	47.3578	128.293	59.675	106.176	22.3583	83.1551	39.5089	66.1897	44.0162	47.9749	55.4811	117.411	29.1571	118.787	23.2242	38.7292
298679	47.4772	128.595	59.8802	106.409	22.5498	83.3048	39.7375	66.1122	44.1977	47.7641	55.6514	117.701	29.2271	119.046	23.3478	38.51
298680	47.5961	128.897	60.0852	106.644	22.7414	83.4545	39.966	66.0338	44.3786	47.5516	55.8212	117.993	29.2969	119.304	23.4709	38.2901
298681	47.7144	129.201	60.29	106.881	22.9331	83.6044	40.1944	65.9544	44.5588	47.3375	55.9905	118.287	29.3666	119.563	23.5933	38.0697
298682	47.8323	129.506	60.4945	107.121	23.1248	83.7545	40.4226	65.8741	44.7384	47.1216	56.1594	118.583	29.4361	119.823	23.7152	37.8487
298683	47.9496	129.812	60.6987	107.363	23.3166	83.9047	40.6506	65.7928	44.9174	46.9041	56.3278	118.881	29.5054	120.082	23.8364	37.627
298684	48.0664	130.119	60.9026	107.608	23.5084	84.055	40.8786	65.7105	45.0958	46.6848	56.4957	119.182	29.5745	120.342	23.9571	37.4048
298685	48.1827	130.427	61.1063	107.855	23.7003	84.2054	41.1063	65.6272	45.2735	46.4638	56.6632	119.485	29.6434	120.602	24.0771	37.182
298686	48.2985	130.736	61.3097	108.105	23.8923	84.356	41.334	65.5428	45.4505	46.2411	56.8301	119.79	29.7121	120.862	24.1966	36.9585
298687	48.4137	131.047	61.5127	108.357	24.0842	84.5067	41.5614	65.4575	45.6269	46.0166	56.9965	120.097	29.7807	121.123	24.3154	36.7345
298688	48.5284	131.358	61.7155	108.613	24.2763	84.6576	41.7888	65.3711	45.8026	45.7903	57.1624	120.407	29.8491	121.383	24.4336	36.5098
298689	48.6425	131.671	61.918	108.871	24.4684	84.8086	42.0159	65.2837	45.9777	45.5623	57.3278	120.719	29.9172	121.644	24.5511	36.2846
298690	48.756	131.985	62.1202	109.131	24.6605	84.9598	42.2429	65.1952	46.1521	45.3324	57.4926	121.033	29.9852	121.905	24.6681	36.0587
298691	48.869	132.3	62.322	109.395	24.8527	85.1112	42.4697	65.1056	46.3257	45.1007	57.6569	121.35	30.053	122.167	24.7844	35.8323
298692	48.9815	132.617	62.5236	109.662	25.0449	85.2627	42.6964	65.015	46.4987	44.8672	57.8206	121.669	30.1206	122.428	24.9	35.6052
298693	49.0933	132.934	62.7248	109.931	25.2371	85.4144	42.9229	64.9232	46.671	44.6319	57.9838	121.991	30.188	122.69	25.0151	35.3775
298694	49.2046	133.253	62.9256	110.204	25.4294	85.5663	43.1493	64.8303	46.8426	44.3946	58.1464	122.315	30.2552	122.952	25.1294	35.1492
298695	49.3153	133.573	63.1261	110.48	25.6218	85.7184	43.3754	64.7363	47.0134	44.1555	58.3084	122.642	30.3222	123.215	25.2432	34.9203
298696	49.4254	133.894	63.3262	110.759	25.8141	85.8706	43.6014	64.6411	47.1835	43.9146	58.4698	122.971	30.389	123.478	25.3563	34.6908
298697	49.535	134.216	63.526	111.041	26.0066	86.0231	43.8272	64.5448	47.3528	43.6717	58.6306	123.303	30.4556	123.74	25.4687	34.4607
298698	49.6439	134.54	63.7253	111.326	26.199	86.1757	44.0528	64.4473	47.5214	43.4269	58.7908	123.637	30.522	124.004	25.5805	34.23
298699	49.7522	134.864	63.9243	111.615	26.3915	86.3285	44.2783	64.3486	47.6893	43.1801	58.9504	123.975	30.5882	124.267	25.6917	33.9987
298700	49.8599	135.19	64.1229	111.908	26.584	86.4816	44.5035	64.2487	47.8563	42.9315	59.1093	124.314	30.6542	124.531	25.8021	33.7668
298701	49.967	135.518	64.321	112.204	26.7766	86.6348	44.7286	64.1475	48.0226	42.6808	59.2676	124.657	30.7199	124.795	25.9119	33.5342
298702	50.0735	135.846	64.5188	112.504	26.9691	86.7883	44.9535	64.0452	48.1881	42.4282	59.4252	125.002	30.7855	125.059	26.021	33.3011
298703	50.1793	136.175	64.7161	112.807	27.1617	86.942	45.1781	63.9415	48.3528	42.1736	59.5822	125.35	30.8509	125.323	26.1295	33.0674
298704	50.2845	136.506	64.913	113.114	27.3544	87.0958	45.4026	63.8366	48.5167	41.917	59.7385	125.701	30.916	125.588	26.2373	32.833
298705	50.3891	136.838	65.1094	113.425	27.547	87.25	45.6269	63.7304	48.6798	41.6584	59.8941	126.055	30.9809	125.853	26.3444	32.5981
298706	50.493	137.172	65.3054	113.74	27.7397	87.4043	45.8509	63.6228	48.842	41.3978	60.049	126.412	31.0456	126.118	26.4508	32.3625
298707	50.5962	137.506	65.5008	114.059	27.9324	87.5589	46.0748	63.514	49.0034	41.1351	60.2032	126.771	31.1101	126.383	26.5565	32.1264
298708	50.6988	137.842	65.6958	114.382	28.1252	87.7138	46.2985	63.4038	49.164	40.8704	60.3566	127.134	31.1744	126.649	26.6616	31.8896
298709	50.8008	138.179	65.8903	114.71	28.3179	87.8688	46.5219	63.2922	49.3237	40.6035	60.5093	127.499	31.2384	126.915	26.7659	31.6522
298710	50.9021	138.517	66.0843	115.042	28.5107	88.0242	46.7451	63.1793	49.4825	40.3347	60.6613	127.868	31.3022	127.181	26.8695	31.4143
298711	51.0026	138.856	66.2777	115.378	28.7035	88.1797	46.9681	63.0649	49.6405	40.0637	60.8125	128.239	31.3658	127.448	26.9725	31.1757
298712	51.1026	139.197	66.4706	115.718	28.8963	88.3356	47.1908	62.9491	49.7976	39.7906	60.9629	128.614	31.4292	127.714	27.0747	30.9365
298713	51.2018	139.539	66.663	116.064	29.0891	88.4917	47.4134	62.8319	49.9537	39.5154	61.1126	128.992	31.4923	127.981	27.1762	30.6968
298714	51.3003	139.882	66.8547	116.413	29.2819	88.6481	47.6356	62.7132	50.109	39.2381	61.2614	129.372	31.5552	128.248	27.277	30.4564
298715	51.3981	140.226	67.0459	116.768	29.4748	88.8047	47.8577	62.593	50.2633	38.9586	61.4095	129.756	31.6179	128.516	27.3771	30.2155
298716	51.4952	140.572	67.2365	117.128	29.6676	88.9617	48.0795	62.4713	50.4167	38.677	61.5567	130.144	31.6803	128.784	27.4765	29.9739
298717	51.5917	140.919	67.4265	117.493	29.8605	89.1189	48.3011	62.3481	50.5692	38.3931	61.703	130.534	31.7425	129.052	27.5752	29.7318
298718	51.6874	141.267	67.6158	117.863	30.0534	89.2764	48.5224	62.2234	50.7207	38.1072	61.8485	130.928	31.8045	129.32	27.6731	29.489
298719	51.7823	141.617	67.8045	118.238	30.2463	89.4342	48.7435	62.097	50.8713	37.819	61.9932	131.325	31.8662	129.588	27.7703	29.2457
298720	51.8766	141.967	67.9925	118.618	30.4392	89.5924	48.9643	61.9691	51.0209	37.5286	62.1369	131.725	31.9277	129.857	27.8667	29.0018
298721	51.97	142.319	68.1799	119.004	30.6321	89.7508	49.1848	61.8395	51.1695	37.236	62.2798	132.129	31.989	130.126	27.9625	28.7573
298722	52.0628	142.672	68.3665	119.396	30.825	89.9095	49.4051	61.7084	51.3171	36.9412	62.4217	132.536	32.05	130.395	28.0574	28.5122
298723	52.1548	143.027	68.5524	119.793	31.0179	90.0686	49.6251	61.5755	51.4637	36.6442	62.5627	132.947	32.1107	130.665	28.1517	28.2665
298724	52.246	143.382	68.7375	120.197	31.2108	90.2279	49.8448	61.441	51.6092	36.3449	62.7028	133.361	32.1713	130.935	28.2452	28.0202
298725	52.3365	143.739	68.9219	120.606	31.4036	90.3876	50.0642	61.3047	51.7537	36.0434	62.8419	133.778	32.2315	131.204	28.3379	27.7734
298726	52.4263	144.098	69.1056	121.021	31.5965	90.5477	50.2834	61.1667	51.8972	35.7396	62.98	134.199	32.2916	131.475	28.4299	27.526
298727	52.5152	144.457	69.2884	121.443	31.7894	90.7081	50.5022	61.0269	52.0397	35.4335	63.1172	134.624	32.3513	131.745	28.5211	27.278
298728	52.6034	144.818	69.4703	121.871	31.9823	90.8688	50.7208	60.8854	52.181	35.1251	63.2533	135.052	32.4109	132.016	28.6116	27.0294
298729	52.6907	145.179	69.6515	122.306	32.1752	91.0299	50.9391	60.742	52.3213	34.8145	63.3885	135.484	32.4701	132.287	28.7013	26.7802
298730	52.7773	145.543	69.8317	122.747	32.368	91.1913	51.157	60.5967	52.4605	34.5016	63.5226	135.919	32.5291	132.558	28.7902	26.5305
298731	52.8631	145.907	70.0111	123.195	32.5609	91.3531	51.3747	60.4496	52.5986	34.1863	63.6556	136.359	32.5879	132.83	28.8784	26.2802
298732	52.9481	146.273	70.1895	123.65	32.7537	91.5153	51.592	60.3006	52.7356	33.8688	63.7876	136.801	32.6464	133.102	28.9657	26.0294
298733	53.0323	146.639	70.367	124.113	32.9466	91.6779	51.809	60.1497	52.8715	33.5489	63.9184	137.248	32.7046	133.374	29.0524	25.778
298734	53.1156	147.008	70.5435	124.583	33.1394	91.8408	52.0257	59.9968	53.0062	33.2268	64.0482	137.698	32.7626	133.646	29.1382	25.526
298735	53.1981	147.377	70.719	125.06	33.3321	92.0041	52.242	59.8419	53.1397	32.9023	64.1768	138.152	32.8203	133.919	29.2232	25.2734
298736	53.2798	147.747	70.8935	125.545	33.5249	92.1678	52.458	59.685	53.2721	32.5754	64.3043	138.61	32.8777	134.192	29.3074	25.0203
298737	53.3607	148.119	71.0669	126.037	33.7177	92.3319	52.6736	59.526	53.4033	32.2462	64.4307	139.072	32.9349	134.465	29.3909	24.7667
298738	53.4407	148.492	71.2392	126.538	33.9104	92.4965	52.8889	59.365	53.5333	31.9147	64.5559	139.537	32.9918	134.738	29.4735	24.5125
298739	53.5199	148.866	71.4104	127.047	34.1031	92.6614	53.1039	59.2018	53.6621	31.5809	64.6798	140.007	33.0485	135.012	29.5554	24.2578
298740	53.5982	149.242	71.5804	127.564	34.2958	92.8268	53.3184	59.0365	53.7897	31.2447	64.8026	140.48	33.1048	135.286	29.6365	24.0025
298741	53.6756	149.618	71.7493	128.09	34.4884	92.9925	53.5326	58.869	53.9161	30.9061	64.9241	140.957	33.1609	135.56	29.7167	23.7466
298742	53.7522	149.996	71.9169	128.624	34.681	93.1588	53.7465	58.6993	54.0412	30.5652	65.0444	141.438	33.2168	135.834	29.7961	23.4902
298743	53.828	150.375	72.0832	129.167	34.8736	93.3254	53.9599	58.5273	54.1651	30.2219	65.1635	141.923	33.2723	136.109	29.8748	23.2334
298744	53.9028	150.755	72.2483	129.719	35.0662	93.4925	54.1729	58.353	54.2876	29.8763	65.2812	142.412	33.3276	136.383	29.9526	22.9759
298745	53.9767	151.136	72.4121	130.281	35.2587	93.6601	54.3856	58.1765	54.4089	29.5284	65.3976	142.905	33.3826	136.659	30.0296	22.7179
298746	54.0498	151.519	72.5744	130.851	35.4512	93.8281	54.5978	57.9975	54.529	29.178	65.5127	143.402	33.4373	136.934	30.1057	22.4595
298747	54.122	151.903	72.7354	131.432	35.6436	93.9966	54.8096	57.8162	54.6477	28.8254	65.6265	143.903	33.4917	137.21	30.1811	22.2004
298748	54.1932	152.287	72.8949	132.022	35.836	94.1656	55.021	57.6324	54.7651	28.4704	65.7389	144.407	33.5459	137.486	30.2556	21.9409
298749	54.2636	152.673	73.053	132.622	36.0284	94.335	55.2319	57.4462	54.8811	28.113	65.8499	144.916	33.5997	137.762	30.3293	21.6809
298750	54.333	153.06	73.2095	133.232	36.2207	94.505	55.4424	57.2574	54.9958	27.7534	65.9595	145.429	33.6533	138.038	30.4021	21.4203
298751	54.4015	153.449	73.3644	133.853	36.413	94.6754	55.6525	57.0661	55.1091	27.3913	66.0677	145.946	33.7066	138.315	30.4741	21.1592
298752	54.4691	153.838	73.5178	134.484	36.6052	94.8464	55.8621	56.8722	55.2211	27.027	66.1745	146.467	33.7596	138.592	30.5453	20.8977
298753	54.5358	154.228	73.6694	135.126	36.7974	95.0178	56.0713	56.6756	55.3317	26.6603	66.2798	146.992	33.8123	138.869	30.6156	20.6356
298754	54.6015	154.62	73.8193	135.778	36.9895	95.1898	56.2799	56.4764	55.4408	26.2913	66.3836	147.52	33.8647	139.146	30.6851	20.373
298755	54.6663	155.013	73.9675	136.442	37.1816	95.3623	56.4881	56.2745	55.5486	25.92	66.4859	148.053	33.9169	139.424	30.7537	20.11
298756	54.7301	155.406	74.1139	137.117	37.3736	95.5353	56.6958	56.0697	55.6549	25.5464	66.5866	148.59	33.9687	139.702	30.8215	19.8465
298757	54.793	155.801	74.2584	137.803	37.5656	95.7089	56.903	55.8622	55.7598	25.1706	66.6859	149.131	34.0202	139.98	30.8884	19.5824
298758	54.8549	156.197	74.4009	138.501	37.7575	95.883	57.1097	55.6519	55.8632	24.7924	66.7835	149.676	34.0715	140.258	30.9544	19.3179
298759	54.9158	156.594	74.5416	139.21	37.9494	96.0577	57.3159	55.4386	55.9651	24.412	66.8796	150.225	34.1224	140.537	31.0196	19.053
298760	54.9758	156.992	74.6802	139.932	38.1412	96.233	57.5215	55.2223	56.0656	24.0293	66.9741	150.777	34.173	140.816	31.0839	18.7875
298761	55.0348	157.391	74.8167	140.665	38.3329	96.4088	57.7266	55.0031	56.1646	23.6444	67.067	151.334	34.2234	141.095	31.1474	18.5216
298762	55.0928	157.791	74.951	141.41	38.5245	96.5852	57.9312	54.7809	56.2621	23.2572	67.1582	151.895	34.2734	141.375	31.21	18.2553
298763	55.1498	158.192	75.0832	142.168	38.7161	96.7622	58.1351	54.5555	56.358	22.8679	67.2477	152.459	34.3231	141.654	31.2717	17.9885
298764	55.2059	158.594	75.2132	142.938	38.9076	96.9398	58.3385	54.327	56.4524	22.4763	67.3356	153.027	34.3725	141.934	31.3325	17.7212
298765	55.2609	158.997	75.3408	143.721	39.0991	97.118	58.5414	54.0953	56.5453	22.0826	67.4218	153.6	34.4216	142.214	31.3925	17.4535
298766	55.3149	159.401	75.466	144.516	39.2904	97.2969	58.7436	53.8603	56.6366	21.6867	67.5062	154.175	34.4704	142.494	31.4515	17.1853
298767	55.368	159.806	75.5888	145.324	39.4817	97.4763	58.9452	53.6221	56.7263	21.2887	67.5889	154.755	34.5189	142.775	31.5097	16.9168
298768	55.42	160.212	75.7091	146.145	39.673	97.6564	59.1462	53.3805	56.8144	20.8886	67.6698	155.339	34.5671	143.056	31.567	16.6478
298769	55.471	160.619	75.8268	146.978	39.8641	97.8372	59.3466	53.1354	56.901	20.4863	67.749	155.926	34.615	143.337	31.6234	16.3783
298770	55.5209	161.027	75.942	147.825	40.0551	98.0186	59.5463	52.8869	56.9859	20.082	67.8263	156.516	34.6625	143.619	31.6789	16.1085
298771	55.5699	161.435	76.0543	148.684	40.2461	98.2006	59.7454	52.6349	57.0692	19.6757	67.9018	157.111	34.7097	143.9	31.7335	15.8382
298772	55.6178	161.845	76.164	149.556	40.437	98.3834	59.9438	52.3793	57.1509	19.2673	67.9755	157.708	34.7566	144.182	31.7873	15.5675
298773	55.6646	162.255	76.2708	150.441	40.6278	98.5668	60.1415	52.1201	57.2309	18.8569	68.0473	158.31	34.8032	144.464	31.8401	15.2965
298774	55.7105	162.667	76.3747	151.339	40.8185	98.7509	60.3385	51.8572	57.3093	18.4445	68.1172	158.915	34.8495	144.746	31.892	15.025
298775	55.7552	163.079	76.4757	152.249	41.0091	98.9357	60.5348	51.5905	57.386	18.0302	68.1852	159.523	34.8954	145.029	31.943	14.7531
298776	55.799	163.492	76.5736	153.172	41.1996	99.1212	60.7303	51.32	57.4609	17.6139	68.2514	160.134	34.941	145.311	31.9931	14.4809
298777	55.8416	163.906	76.6685	154.108	41.39	99.3075	60.9252	51.0456	57.5343	17.1958	68.3155	160.749	34.9863	145.595	32.0423	14.2083
298778	55.8832	164.32	76.7601	155.056	41.5803	99.4944	61.1192	50.7673	57.6058	16.7758	68.3778	161.367	35.0313	145.878	32.0906	13.9353
298779	55.9238	164.735	76.8486	156.016	41.7705	99.6821	61.3125	50.4849	57.6757	16.354	68.438	161.988	35.0759	146.161	32.1379	13.6619
298780	55.9633	165.151	76.9337	156.988	41.9606	99.8706	61.505	50.1985	57.7439	15.9304	68.4963	162.612	35.1202	146.445	32.1844	13.3882
298781	56.0017	165.568	77.0155	157.972	42.1505	100.06	61.6967	49.908	57.8103	15.5051	68.5526	163.239	35.1642	146.729	32.2299	13.1141
298782	56.039	165.986	77.0938	158.967	42.3404	100.25	61.8876	49.6132	57.8749	15.078	68.6068	163.869	35.2079	147.013	32.2745	12.8397
298783	56.0753	166.404	77.1687	159.974	42.5302	100.441	62.0777	49.3142	57.9378	14.6492	68.659	164.501	35.2512	147.298	32.3182	12.5649
298784	56.1104	166.823	77.24	160.991	42.7198	100.632	62.2669	49.0108	57.9989	14.2188	68.7092	165.137	35.2942	147.582	32.3609	12.2898
298785	56.1445	167.243	77.3077	162.019	42.9093	100.825	62.4552	48.7031	58.0583	13.7867	68.7573	165.774	35.3368	147.867	32.4027	12.0144
298786	56.1775	167.663	77.3718	163.057	43.0987	101.018	62.6426	48.3908	58.1158	13.3531	68.8033	166.415	35.3791	148.152	32.4436	11.7387
298787	56.2094	168.084	77.4321	164.104	43.288	101.212	62.8291	48.074	58.1715	12.918	68.8473	167.058	35.4211	148.437	32.4836	11.4626
298788	56.2402	168.505	77.4886	165.161	43.4772	101.407	63.0147	47.7526	58.2254	12.4813	68.8891	167.703	35.4627	148.723	32.5226	11.1862
298789	56.2699	168.927	77.5413	166.227	43.6662	101.602	63.1993	47.4265	58.2775	12.0432	68.9288	168.351	35.504	149.009	32.5607	10.9095
298790	56.2985	169.35	77.5901	167.301	43.855	101.799	63.383	47.0957	58.3278	11.6037	68.9664	169	35.5449	149.295	32.5978	10.6326
298791	56.326	169.773	77.635	168.383	44.0438	101.996	63.5657	46.76	58.3762	11.1629	69.0018	169.652	35.5855	149.581	32.634	10.3553
298792	56.3523	170.197	77.6759	169.471	44.2324	102.195	63.7473	46.4194	58.4228	10.7207	69.0351	170.305	35.6257	149.867	32.6693	10.0778
298793	56.3776	170.621	77.7128	170.567	44.4209	102.394	63.928	46.0738	58.4675	10.2773	69.0662	170.96	35.6657	150.154	32.7036	9.79994
298794	56.4017	171.046	77.7457	171.668	44.6092	102.594	64.1076	45.7232	58.5104	9.83258	69.0952	171.617	35.7052	150.441	32.737	9.52185
298795	56.4248	171.471	77.7745	172.774	44.7974	102.795	64.2861	45.3674	58.5514	9.38673	69.1219	172.276	35.7444	150.728	32.7694	9.2435
298796	56.4467	171.897	77.7992	173.886	44.9854	102.997	64.4635	45.0064	58.5905	8.93974	69.1465	172.936	35.7833	151.015	32.8008	8.9649
298797	56.4675	172.323	77.8197	175	45.1733	103.2	64.6398	44.6402	58.6277	8.49168	69.1689	173.597	35.8218	151.302	32.8314	8.68604
298798	56.4871	172.749	77.8361	176.119	45.361	103.404	64.8149	44.2685	58.663	8.04258	69.189	174.259	35.8599	151.59	32.861	8.40695
298799	56.5057	173.176	77.8484	177.239	45.5485	103.609	64.9889	43.8915	58.6964	7.59251	69.207	174.923	35.8977	151.878	32.8896	8.12763
298800	56.5231	173.603	77.8564	178.362	45.7359	103.815	65.1617	43.5089	58.7279	7.1415	69.2227	175.587	35.9352	152.166	32.9172	7.84807
298801	56.5393	174.031	77.8603	179.485	45.9231	104.022	65.3333	43.1208	58.7576	6.68962	69.2362	176.253	35.9723	152.454	32.9439	7.5683
298802	56.5545	174.458	77.8599	180.609	46.1102	104.23	65.5036	42.7269	58.7852	6.23691	69.2475	176.919	36.009	152.743	32.9697	7.28833
298803	56.5685	174.887	77.8554	181.733	46.2971	104.439	65.6726	42.3274	58.811	5.78343	69.2566	177.585	36.0453	153.032	32.9945	7.00814
298804	56.5814	175.315	77.8467	182.855	46.4838	104.649	65.8404	41.922	58.8349	5.32924	69.2634	178.253	36.0814	153.321	33.0183	6.72776
298805	56.5931	175.744	77.8338	183.975	46.6703	104.86	66.0068	41.5108	58.8568	4.87438	69.268	178.92	36.117	153.61	33.0412	6.4472
298806	56.6037	176.173	77.8167	185.093	46.8567	105.072	66.1719	41.0935	58.8767	4.41891	69.2703	179.588	36.1523	153.899	33.0631	6.16645
298807	56.6131	176.602	77.7955	186.207	47.0428	105.285	66.3356	40.6703	58.8948	3.96289	69.2704	180.255	36.1872	154.189	33.084	5.88553
298808	56.6214	177.031	77.7701	187.318	47.2288	105.499	66.4979	40.2409	58.9109	3.50637	69.2683	180.923	36.2218	154.478	33.104	5.60444
298809	56.6286	177.46	77.7407	188.423	47.4146	105.715	66.6587	39.8053	58.925	3.04941	69.2639	181.59	36.2559	154.768	33.123	5.32319
298810	56.6346	177.89	77.7071	189.524	47.6001	105.931	66.8181	39.3635	58.9372	2.59206	69.2573	182.258	36.2898	155.058	33.141	5.0418
298811	56.6395	178.32	77.6696	190.618	47.7855	106.149	66.976	38.9153	58.9475	2.13439	69.2484	182.924	36.3232	155.349	33.1581	4.76026
298812	56.6433	178.749	77.628	191.706	47.9707	106.368	67.1324	38.4608	58.9558	1.67644	69.2373	183.59	36.3563	155.639	33.1742	4.47859
298813	56.6459	179.179	77.5824	192.786	48.1557	106.588	67.2871	37.9997	58.9621	1.21828	69.224	184.256	36.389	155.93	33.1893	4.19679
298814	56.6473	179.609	77.533	193.859	48.3404	106.809	67.4403	37.5322	58.9665	0.759956	69.2085	184.921	36.4214	156.221	33.2035	3.91486
298815	56.6476	180.039	77.4797	194.923	48.5249	107.032	67.5919	37.0581	58.9689	0.301534	69.1907	185.584	36.4533	156.512	33.2167	3.63283
298816	56.6468	180.469	77.4225	195.979	48.7092	107.255	67.7418	36.5773	58.9694	359.843	69.1708	186.247	36.4849	156.803	33.2289	3.3507
298817	56.6448	180.899	77.3616	197.025	48.8933	107.48	67.89	36.0898	58.9679	359.385	69.1486	186.908	36.5162	157.094	33.2401	3.06847
298818	56.6417	181.328	77.297	198.061	49.0772	107.706	68.0365	35.5955	58.9644	358.926	69.1242	187.568	36.547	157.386	33.2504	2.78615
298819	56.6374	181.758	77.2287	199.088	49.2608	107.934	68.1812	35.0943	58.959	358.468	69.0976	188.227	36.5775	157.678	33.2597	2.50375
298820	56.632	182.188	77.1568	200.103	49.4442	108.163	68.3241	34.5864	58.9517	358.01	69.0689	188.884	36.6076	157.97	33.268	2.22127
298821	56.6254	182.617	77.0813	201.108	49.6274	108.393	68.4652	34.0714	58.9424	357.552	69.038	189.539	36.6373	158.262	33.2754	1.93874
298822	56.6177	183.047	77.0024	202.101	49.8103	108.624	68.6044	33.5496	58.9311	357.095	69.0049	190.193	36.6666	158.554	33.2817	1.65615
298823	56.6089	183.476	76.9201	203.083	49.9929	108.857	68.7417	33.0207	58.9179	356.638	68.9696	190.845	36.6956	158.846	33.2871	1.37351
298824	56.5989	183.905	76.8344	204.054	50.1753	109.091	68.8771	32.4847	58.9028	356.181	68.9322	191.494	36.7242	159.139	33.2915	1.09082
298825	56.5877	184.333	76.7454	205.012	50.3575	109.326	69.0104	31.9417	58.8857	355.724	68.8927	192.142	36.7523	159.432	33.295	0.808111
298826	56.5755	184.762	76.6532	205.958	50.5394	109.563	69.1418	31.3916	58.8666	355.269	68.8511	192.787	36.7801	159.725	33.2974	0.525373
298827	56.5621	185.19	76.5579	206.891	50.721	109.802	69.2711	30.8343	58.8457	354.814	68.8073	193.431	36.8076	160.018	33.2989	0.242618
298828	56.5476	185.618	76.4595	207.812	50.9023	110.041	69.3982	30.2699	58.8228	354.359	68.7615	194.071	36.8346	160.311	33.2995	359.96
298829	56.5319	186.046	76.358	208.721	51.0834	110.283	69.5233	29.6983	58.7979	353.905	68.7135	194.709	36.8612	160.605	33.299	359.677
298830	56.5151	186.473	76.2536	209.616	51.2642	110.525	69.6462	29.1196	58.7712	353.452	68.6636	195.345	36.8875	160.898	33.2975	359.394
298831	56.4971	186.9	76.1463	210.499	51.4446	110.77	69.7668	28.5336	58.7425	353	68.6115	195.978	36.9134	161.192	33.2951	359.112
298832	56.4781	187.327	76.0362	211.369	51.6248	111.015	69.8852	27.9406	58.7119	352.548	68.5574	196.608	36.9389	161.486	33.2917	358.829
298833	56.4579	187.753	75.9233	212.226	51.8047	111.263	70.0013	27.3403	58.6794	352.098	68.5013	197.235	36.964	161.78	33.2874	358.546
298834	56.4366	188.179	75.8078	213.071	51.9843	111.511	70.115	26.733	58.645	351.648	68.4432	197.86	36.9887	162.074	33.282	358.264
298835	56.4142	188.605	75.6896	213.902	52.1636	111.762	70.2264	26.1185	58.6087	351.2	68.3832	198.481	37.013	162.369	33.2757	357.981
298836	56.3906	189.03	75.5689	214.721	52.3426	112.014	70.3354	25.4969	58.5705	350.752	68.3211	199.099	37.0369	162.663	33.2684	357.699
298837	56.3659	189.454	75.4457	215.527	52.5212	112.268	70.4419	24.8683	58.5304	350.306	68.2571	199.714	37.0604	162.958	33.2601	357.416
298838	56.3402	189.878	75.32	216.32	52.6996	112.523	70.5459	24.2328	58.4884	349.86	68.1911	200.326	37.0836	163.252	33.2509	357.134
298839	56.3132	190.302	75.192	217.101	52.8776	112.78	70.6473	23.5903	58.4446	349.416	68.1232	200.934	37.1063	163.547	33.2407	356.851
298840	56.2852	190.725	75.0617	217.869	53.0552	113.039	70.7462	22.9409	58.3989	348.974	68.0535	201.54	37.1286	163.842	33.2295	356.569
298841	56.2561	191.147	74.9292	218.625	53.2325	113.299	70.8424	22.2848	58.3514	348.532	67.9818	202.141	37.1506	164.137	33.2173	356.287
298842	56.2259	191.569	74.7944	219.368	53.4095	113.561	70.936	21.6219	58.302	348.092	67.9083	202.739	37.1721	164.433	33.2042	356.005
298843	56.1946	191.99	74.6575	220.1	53.5861	113.825	71.0269	20.9525	58.2508	347.653	67.8329	203.334	37.1933	164.728	33.1901	355.723
298844	56.1622	192.411	74.5186	220.819	53.7624	114.091	71.1151	20.2765	58.1978	347.216	67.7558	203.925	37.214	165.024	33.175	355.441
298845	56.1287	192.831	74.3776	221.527	53.9383	114.359	71.2004	19.5942	58.1429	346.78	67.6768	204.513	37.2344	165.32	33.1589	355.159
298846	56.0941	193.25	74.2347	222.223	54.1138	114.628	71.283	18.9056	58.0862	346.345	67.596	205.096	37.2543	165.615	33.1419	354.878
298847	56.0584	193.669	74.0899	222.907	54.2889	114.899	71.3627	18.2108	58.0278	345.913	67.5134	205.677	37.2739	165.911	33.1239	354.596
298848	56.0217	194.087	73.9432	223.58	54.4637	115.172	71.4395	17.51	57.9675	345.481	67.4291	206.253	37.293	166.207	33.105	354.315
298849	55.9838	194.504	73.7947	224.242	54.638	115.447	71.5134	16.8034	57.9055	345.052	67.3431	206.825	37.3118	166.504	33.0851	354.034
298850	55.9449	194.92	73.6445	224.893	54.812	115.724	71.5843	16.0911	57.8417	344.624	67.2554	207.394	37.3301	166.8	33.0642	353.753
298851	55.9049	195.336	73.4925	225.533	54.9855	116.003	71.6522	15.3733	57.7761	344.198	67.166	207.959	37.348	167.096	33.0423	353.472
298852	55.8639	195.751	73.3389	226.162	55.1587	116.284	71.7171	14.6501	57.7088	343.773	67.0749	208.52	37.3656	167.393	33.0195	353.192
298853	55.8218	196.165	73.1837	226.781	55.3314	116.567	71.779	13.9218	57.6397	343.35	66.9822	209.077	37.3827	167.689	32.9957	352.911
298854	55.7786	196.579	73.0269	227.39	55.5037	116.852	71.8377	13.1885	57.569	342.93	66.8878	209.63	37.3994	167.986	32.971	352.631
298855	55.7343	196.991	72.8686	227.988	55.6755	117.139	71.8933	12.4505	57.4965	342.51	66.7918	210.179	37.4158	168.283	32.9453	352.351
298856	55.6891	197.403	72.7088	228.577	55.8469	117.428	71.9458	11.708	57.4223	342.093	66.6943	210.724	37.4317	168.58	32.9186	352.071
298857	55.6427	197.814	72.5476	229.155	56.0179	117.719	71.9951	10.9612	57.3464	341.678	66.5952	211.266	37.4472	168.877	32.891	351.792
298858	55.5954	198.224	72.385	229.725	56.1884	118.013	72.0411	10.2104	57.2689	341.265	66.4945	211.803	37.4623	169.174	32.8625	351.512
298859	55.547	198.633	72.221	230.285	56.3584	118.308	72.084	9.45571	57.1897	340.853	66.3923	212.336	37.4769	169.471	32.8329	351.233
298860	55.4975	199.042	72.0556	230.835	56.528	118.606	72.1236	8.69749	57.1088	340.444	66.2886	212.865	37.4912	169.768	32.8025	350.954
298861	55.4471	199.449	71.889	231.377	56.6971	118.906	72.1599	7.93597	57.0263	340.036	66.1834	213.391	37.5051	170.066	32.771	350.676
298862	55.3956	199.855	71.7212	231.91	56.8656	119.208	72.1929	7.17142	56.9421	339.631	66.0768	213.912	37.5185	170.363	32.7386	350.397
298863	55.3431	200.261	71.5521	232.434	57.0337	119.513	72.2226	6.40411	56.8563	339.228	65.9687	214.429	37.5316	170.661	32.7053	350.119
298864	55.2896	200.665	71.3819	232.95	57.2013	119.82	72.249	5.63433	56.769	338.827	65.8592	214.942	37.5442	170.958	32.6711	349.841
298865	55.2351	201.069	71.2104	233.457	57.3684	120.129	72.272	4.86235	56.68	338.428	65.7483	215.451	37.5565	171.256	32.6358	349.564
298866	55.1796	201.472	71.0379	233.957	57.5349	120.441	72.2917	4.08847	56.5894	338.031	65.636	215.957	37.5683	171.554	32.5997	349.287
298867	55.1231	201.873	70.8643	234.448	57.7009	120.754	72.308	3.31298	56.4973	337.636	65.5223	216.458	37.5797	171.851	32.5626	349.01
298868	55.0656	202.274	70.6896	234.932	57.8664	121.071	72.3209	2.53619	56.4037	337.243	65.4073	216.955	37.5907	172.149	32.5246	348.733
298869	55.0071	202.673	70.5139	235.408	58.0313	121.39	72.3304	1.75838	56.3085	336.853	65.2909	217.448	37.6013	172.447	32.4856	348.456
298870	54.9476	203.072	70.3372	235.876	58.1956	121.711	72.3365	0.979872	56.2117	336.464	65.1733	217.938	37.6114	172.745	32.4457	348.18
298871	54.8872	203.47	70.1596	236.338	58.3594	122.035	72.3393	0.200961	56.1135	336.078	65.0544	218.423	37.6212	173.043	32.4049	347.904
298872	54.8257	203.866	69.981	236.792	58.5226	122.362	72.3386	359.422	56.0137	335.695	64.9342	218.905	37.6305	173.342	32.3631	347.629
298873	54.7634	204.262	69.8014	237.239	58.6852	122.691	72.3346	358.643	55.9124	335.313	64.8127	219.382	37.6394	173.64	32.3204	347.354
298874	54.7	204.656	69.621	237.679	58.8472	123.023	72.3271	357.865	55.8097	334.934	64.69	219.856	37.6479	173.938	32.2767	347.079
298875	54.6357	205.049	69.4397	238.113	59.0086	123.357	72.3163	357.088	55.7055	334.557	64.5661	220.325	37.656	174.237	32.2322	346.805
298876	54.5705	205.441	69.2575	238.54	59.1694	123.695	72.302	356.311	55.5999	334.182	64.441	220.791	37.6637	174.535	32.1867	346.531
298877	54.5043	205.832	69.0745	238.96	59.3295	124.034	72.2844	355.536	55.4928	333.81	64.3147	221.253	37.671	174.833	32.1403	346.257
298878	54.4372	206.222	68.8908	239.375	59.489	124.377	72.2635	354.763	55.3843	333.439	64.1873	221.711	37.6778	175.132	32.093	345.983
298879	54.3691	206.611	68.7062	239.783	59.6478	124.722	72.2391	353.992	55.2744	333.072	64.0587	222.166	37.6842	175.43	32.0448	345.71
298880	54.3002	206.999	68.5209	240.185	59.806	125.071	72.2115	353.223	55.1631	332.706	63.929	222.616	37.6903	175.729	31.9957	345.438
298881	54.2303	207.386	68.3348	240.582	59.9635	125.422	72.1805	352.457	55.0505	332.343	63.7982	223.063	37.6959	176.027	31.9456	345.165
298882	54.1595	207.771	68.148	240.972	60.1203	125.776	72.1462	351.693	54.9364	331.982	63.6663	223.506	37.7011	176.326	31.8946	344.893
298883	54.0878	208.155	67.9605	241.357	60.2764	126.133	72.1086	350.933	54.821	331.623	63.5333	223.946	37.7058	176.625	31.8428	344.622
298884	54.0152	208.538	67.7724	241.737	60.4318	126.493	72.0678	350.176	54.7043	331.267	63.3993	224.382	37.7102	176.923	31.79	344.351
298885	53.9417	208.92	67.5835	242.111	60.5864	126.856	72.0237	349.423	54.5862	330.913	63.2642	224.814	37.7141	177.222	31.7364	344.08
298886	53.8673	209.301	67.394	242.48	60.7403	127.222	71.9763	348.674	54.4668	330.562	63.1281	225.242	37.7176	177.521	31.6818	343.81
298887	53.792	209.681	67.2039	242.844	60.8935	127.591	71.9258	347.928	54.3461	330.213	62.991	225.667	37.7207	177.82	31.6263	343.54
298888	53.7158	210.059	67.0132	243.203	61.0459	127.963	71.8721	347.188	54.2241	329.866	62.8529	226.089	37.7234	178.118	31.5699	343.27
298889	53.6388	210.436	66.8218	243.557	61.1976	128.338	71.8153	346.451	54.1009	329.522	62.7138	226.507	37.7256	178.417	31.5127	343.001
298890	53.5609	210.813	66.6299	243.906	61.3484	128.717	71.7553	345.72	53.9763	329.179	62.5738	226.921	37.7275	178.716	31.4546	342.733
298891	53.4822	211.187	66.4374	244.251	61.4985	129.099	71.6923	344.994	53.8505	328.84	62.4328	227.332	37.7289	179.015	31.3955	342.464
298892	53.4026	211.561	66.2444	244.591	61.6477	129.483	71.6262	344.272	53.7235	328.502	62.2909	227.739	37.7299	179.314	31.3356	342.197
298893	53.3221	211.934	66.0508	244.926	61.7961	129.872	71.5571	343.557	53.5953	328.167	62.1481	228.143	37.7305	179.612	31.2749	341.929
298894	53.2408	212.305	65.8567	245.257	61.9437	130.263	71.4851	342.847	53.4659	327.834	62.0044	228.544	37.7307	179.911	31.2132	341.663
298895	53.1587	212.675	65.6621	245.584	62.0904	130.658	71.41	342.142	53.3352	327.504	61.8598	228.941	37.7304	180.21	31.1506	341.396
298896	53.0758	213.043	65.467	245.906	62.2362	131.056	71.3321	341.444	53.2034	327.176	61.7143	229.335	37.7298	180.509	31.0872	341.13
298897	52.992	213.411	65.2714	246.225	62.3812	131.458	71.2513	340.751	53.0704	326.85	61.568	229.726	37.7287	180.808	31.023	340.865
298898	52.9074	213.777	65.0753	246.539	62.5252	131.863	71.1676	340.065	52.9362	326.527	61.4208	230.114	37.7272	181.106	30.9578	340.6
298899	52.822	214.142	64.8787	246.849	62.6684	132.271	71.0812	339.385	52.8009	326.206	61.2728	230.498	37.7252	181.405	30.8918	340.335
298900	52.7358	214.506	64.6817	247.156	62.8106	132.684	70.992	338.712	52.6645	325.887	61.124	230.879	37.7229	181.704	30.825	340.071
298901	52.6488	214.869	64.4843	247.458	62.9519	133.099	70.9	338.045	52.5269	325.571	60.9743	231.257	37.7201	182.003	30.7572	339.807
298902	52.561	215.23	64.2864	247.757	63.0922	133.518	70.8054	337.384	52.3882	325.257	60.8239	231.632	37.717	182.302	30.6886	339.544
298903	52.4725	215.59	64.0881	248.053	63.2315	133.941	70.7081	336.731	52.2484	324.945	60.6727	232.004	37.7134	182.6	30.6192	339.282
298904	52.3831	215.949	63.8894	248.345	63.3698	134.368	70.6082	336.084	52.1076	324.635	60.5208	232.373	37.7094	182.899	30.549	339.019
298905	52.293	216.307	63.6903	248.633	63.5071	134.798	70.5058	335.444	51.9656	324.328	60.368	232.738	37.7049	183.198	30.4778	338.758
298906	52.2021	216.663	63.4908	248.918	63.6434	135.231	70.4008	334.811	51.8226	324.023	60.2146	233.101	37.7001	183.496	30.4059	338.497
298907	52.1105	217.018	63.291	249.2	63.7787	135.669	70.2933	334.185	51.6786	323.721	60.0604	233.461	37.6948	183.795	30.3331	338.236
298908	52.0181	217.372	63.0907	249.478	63.9129	136.11	70.1834	333.567	51.5335	323.42	59.9055	233.818	37.6892	184.094	30.2594	337.976
298909	51.9249	217.725	62.8901	249.754	64.046	136.555	70.0711	332.955	51.3874	323.122	59.7499	234.172	37.6831	184.392	30.185	337.716
298910	51.831	218.076	62.6892	250.026	64.178	137.004	69.9564	332.35	51.2403	322.826	59.5936	234.523	37.6766	184.69	30.1097	337.457
298911	51.7364	218.426	62.4879	250.295	64.3089	137.457	69.8394	331.753	51.0921	322.532	59.4367	234.871	37.6696	184.989	30.0336	337.199
298912	51.641	218.775	62.2862	250.561	64.4387	137.914	69.7202	331.162	50.943	322.241	59.279	235.217	37.6623	185.287	29.9566	336.941
298913	51.545	219.123	62.0843	250.824	64.5674	138.374	69.5986	330.579	50.7929	321.952	59.1208	235.56	37.6545	185.586	29.8788	336.683
298914	51.4482	219.469	61.882	251.084	64.6949	138.839	69.4749	330.003	50.6418	321.664	58.9618	235.9	37.6464	185.884	29.8003	336.426
298915	51.3507	219.814	61.6794	251.342	64.8211	139.307	69.349	329.434	50.4898	321.379	58.8022	236.237	37.6378	186.182	29.7209	336.17
298916	51.2525	220.158	61.4765	251.597	64.9462	139.78	69.221	328.873	50.3368	321.097	58.642	236.572	37.6288	186.481	29.6407	335.914
298917	51.1536	220.501	61.2733	251.849	65.0701	140.256	69.0909	328.318	50.1829	320.816	58.4812	236.904	37.6193	186.779	29.5597	335.658
298918	51.054	220.842	61.0698	252.098	65.1927	140.736	68.9588	327.771	50.0281	320.538	58.3198	237.234	37.6095	187.077	29.4778	335.404
298919	50.9537	221.182	60.866	252.345	65.3141	141.221	68.8246	327.23	49.8723	320.261	58.1578	237.56	37.5993	187.375	29.3952	335.149
298920	50.8527	221.521	60.6619	252.589	65.4342	141.709	68.6885	326.697	49.7156	319.987	57.9952	237.885	37.5886	187.673	29.3118	334.896
298921	50.7511	221.859	60.4576	252.831	65.553	142.202	68.5504	326.171	49.5581	319.715	57.832	238.207	37.5775	187.971	29.2276	334.642
298922	50.6488	222.195	60.253	253.07	65.6705	142.698	68.4105	325.652	49.3997	319.445	57.6682	238.526	37.5661	188.269	29.1426	334.39
298923	50.5458	222.53	60.0482	253.307	65.7866	143.199	68.2687	325.139	49.2403	319.177	57.5039	238.843	37.5542	188.566	29.0569	334.138
298924	50.4422	222.864	59.8431	253.542	65.9014	143.704	68.125	324.634	49.0802	318.911	57.3391	239.158	37.5418	188.864	28.9703	333.886
298925	50.3379	223.197	59.6377	253.774	66.0148	144.213	67.9796	324.135	48.9192	318.648	57.1737	239.47	37.5291	189.162	28.883	333.635
298926	50.233	223.528	59.4321	254.004	66.1268	144.726	67.8325	323.644	48.7573	318.386	57.0078	239.78	37.516	189.459	28.7948	333.385
298927	50.1274	223.859	59.2263	254.232	66.2374	145.243	67.6836	323.159	48.5946	318.126	56.8413	240.087	37.5025	189.757	28.706	333.135
298928	50.0212	224.188	59.0202	254.457	66.3466	145.764	67.533	322.681	48.4311	317.869	56.6744	240.393	37.4885	190.054	28.6163	332.886
298929	49.9144	224.515	58.814	254.681	66.4543	146.29	67.3808	322.209	48.2667	317.613	56.5069	240.696	37.4742	190.351	28.5259	332.637
298930	49.807	224.842	58.6075	254.902	66.5605	146.819	67.227	321.744	48.1016	317.36	56.339	240.996	37.4594	190.649	28.4347	332.389
298931	49.6989	225.167	58.4008	255.122	66.6652	147.353	67.0715	321.285	47.9357	317.108	56.1705	241.295	37.4442	190.946	28.3427	332.142
298932	49.5902	225.492	58.1938	255.339	66.7684	147.891	66.9146	320.833	47.769	316.858	56.0016	241.591	37.4286	191.243	28.2501	331.895
298933	49.481	225.815	57.9867	255.555	66.8701	148.433	66.7561	320.387	47.6015	316.61	55.8322	241.885	37.4126	191.54	28.1566	331.648
298934	49.3711	226.136	57.7794	255.768	66.9702	148.979	66.5961	319.948	47.4332	316.365	55.6624	242.177	37.3962	191.836	28.0624	331.402
298935	49.2606	226.457	57.5719	255.98	67.0687	149.529	66.4347	319.515	47.2642	316.121	55.492	242.467	37.3794	192.133	27.9675	331.157
298936	49.1496	226.776	57.3642	256.19	67.1656	150.083	66.2718	319.088	47.0945	315.879	55.3213	242.755	37.3622	192.43	27.8718	330.913
298937	49.038	227.094	57.1563	256.397	67.2609	150.642	66.1076	318.667	46.924	315.639	55.1501	243.041	37.3446	192.726	27.7754	330.669
298938	48.9258	227.411	56.9482	256.604	67.3545	151.204	65.942	318.252	46.7527	315.4	54.9785	243.325	37.3265	193.023	27.6782	330.425
298939	48.813	227.727	56.7399	256.808	67.4465	151.771	65.775	317.843	46.5808	315.164	54.8064	243.607	37.3081	193.319	27.5803	330.183
298940	48.6996	228.042	56.5315	257.011	67.5368	152.341	65.6067	317.44	46.4081	314.93	54.6339	243.887	37.2893	193.615	27.4817	329.94
298941	48.5857	228.355	56.3229	257.212	67.6254	152.916	65.4371	317.042	46.2347	314.697	54.4611	244.164	37.2701	193.911	27.3824	329.699
298942	48.4713	228.667	56.1141	257.411	67.7122	153.494	65.2663	316.651	46.0607	314.466	54.2878	244.44	37.2504	194.207	27.2823	329.457
298943	48.3563	228.979	55.9052	257.609	67.7973	154.077	65.0942	316.264	45.8859	314.237	54.1141	244.714	37.2304	194.503	27.1816	329.217
298944	48.2407	229.289	55.6961	257.805	67.8806	154.663	64.921	315.884	45.7105	314.01	53.94	244.987	37.21	194.799	27.0801	328.977
298945	48.1247	229.597	55.4869	258	67.9622	155.253	64.7465	315.509	45.5344	313.784	53.7655	245.257	37.1891	195.094	26.9779	328.738
298946	48.008	229.905	55.2775	258.193	68.0419	155.847	64.5709	315.139	45.3576	313.561	53.5907	245.526	37.1679	195.39	26.875	328.499
298947	47.8909	230.212	55.068	258.384	68.1198	156.445	64.3941	314.775	45.1802	313.339	53.4155	245.792	37.1463	195.685	26.7714	328.261
298948	47.7733	230.517	54.8583	258.574	68.1958	157.046	64.2163	314.416	45.0021	313.119	53.2399	246.057	37.1242	195.98	26.6671	328.024
298949	47.6551	230.821	54.6485	258.763	68.27	157.651	64.0373	314.062	44.8234	312.9	53.064	246.321	37.1018	196.275	26.5621	327.787
298950	47.5364	231.124	54.4385	258.95	68.3423	158.26	63.8573	313.714	44.6441	312.683	52.8877	246.582	37.079	196.57	26.4564	327.551
298951	47.4172	231.426	54.2284	259.136	68.4126	158.872	63.6762	313.37	44.4641	312.469	52.7111	246.842	37.0558	196.865	26.35	327.315
298952	47.2975	231.727	54.0182	259.32	68.4811	159.488	63.4941	313.031	44.2835	312.255	52.5341	247.1	37.0321	197.159	26.243	327.08
298953	47.1773	232.027	53.8079	259.503	68.5476	160.107	63.3111	312.697	44.1023	312.043	52.3568	247.356	37.0081	197.454	26.1352	326.845
298954	47.0566	232.326	53.5974	259.685	68.6121	160.73	63.127	312.368	43.9205	311.833	52.1791	247.611	36.9837	197.748	26.0268	326.612
298955	46.9355	232.623	53.3868	259.866	68.6746	161.356	62.942	312.044	43.7381	311.625	52.0012	247.864	36.9589	198.042	25.9177	326.378
298956	46.8138	232.92	53.1761	260.045	68.7352	161.984	62.756	311.724	43.5552	311.418	51.8229	248.116	36.9338	198.337	25.808	326.146
298957	46.6917	233.215	52.9653	260.223	68.7937	162.617	62.5691	311.409	43.3716	311.213	51.6443	248.366	36.9082	198.63	25.6975	325.914
298958	46.5691	233.509	52.7543	260.399	68.8502	163.252	62.3813	311.099	43.1874	311.01	51.4654	248.614	36.8822	198.924	25.5864	325.682
298959	46.4461	233.803	52.5433	260.575	68.9046	163.89	62.1926	310.793	43.0027	310.808	51.2862	248.861	36.8559	199.218	25.4747	325.451
298960	46.3226	234.095	52.3321	260.749	68.957	164.531	62.0031	310.491	42.8175	310.607	51.1067	249.107	36.8291	199.511	25.3623	325.221
298961	46.1986	234.386	52.1209	260.922	69.0072	165.175	61.8127	310.193	42.6316	310.408	50.9269	249.351	36.802	199.804	25.2492	324.992
298962	46.0742	234.676	51.9095	261.094	69.0554	165.822	61.6214	309.9	42.4453	310.211	50.7468	249.593	36.7745	200.098	25.1355	324.763
298963	45.9493	234.965	51.6981	261.265	69.1014	166.471	61.4294	309.611	42.2583	310.015	50.5664	249.834	36.7466	200.391	25.0211	324.534
298964	45.824	235.253	51.4865	261.435	69.1454	167.122	61.2365	309.326	42.0709	309.821	50.3858	250.074	36.7183	200.683	24.9062	324.306
298965	45.6983	235.54	51.2749	261.604	69.1871	167.776	61.0429	309.046	41.8829	309.628	50.2048	250.312	36.6896	200.976	24.7905	324.079
298966	45.5721	235.826	51.0632	261.771	69.2268	168.433	60.8485	308.769	41.6944	309.437	50.0236	250.549	36.6606	201.268	24.6743	323.853
298967	45.4455	236.111	50.8513	261.938	69.2642	169.091	60.6534	308.496	41.5054	309.247	49.8422	250.784	36.6312	201.561	24.5574	323.627
298968	45.3185	236.394	50.6394	262.103	69.2995	169.752	60.4575	308.227	41.3158	309.059	49.6605	251.018	36.6013	201.853	24.4398	323.401
298969	45.191	236.677	50.4274	262.268	69.3325	170.414	60.2609	307.961	41.1258	308.872	49.4785	251.25	36.5712	202.145	24.3217	323.176
298970	45.0632	236.959	50.2153	262.431	69.3634	171.079	60.0636	307.7	40.9353	308.686	49.2963	251.482	36.5406	202.437	24.2029	322.952
298971	44.9349	237.24	50.0032	262.594	69.3921	171.745	59.8656	307.442	40.7442	308.502	49.1138	251.712	36.5097	202.728	24.0835	322.729
298972	44.8063	237.519	49.7909	262.755	69.4185	172.412	59.6669	307.188	40.5527	308.32	48.9311	251.941	36.4783	203.02	23.9635	322.506
298973	44.6772	237.798	49.5786	262.916	69.4427	173.082	59.4675	306.937	40.3607	308.139	48.7482	252.168	36.4466	203.311	23.8429	322.284
298974	44.5478	238.076	49.3662	263.075	69.4647	173.752	59.2675	306.69	40.1682	307.959	48.565	252.394	36.4146	203.602	23.7217	322.062
298975	44.4179	238.353	49.1538	263.234	69.4844	174.424	59.0669	306.446	39.9753	307.78	48.3816	252.619	36.3821	203.893	23.5998	321.841
298976	44.2877	238.629	48.9412	263.392	69.5019	175.096	58.8656	306.206	39.7819	307.603	48.198	252.843	36.3493	204.183	23.4774	321.62
298977	44.157	238.904	48.7287	263.549	69.5171	175.77	58.6637	305.969	39.588	307.428	48.0142	253.065	36.3161	204.474	23.3544	321.4
298978	44.026	239.178	48.516	263.705	69.53	176.445	58.4612	305.735	39.3937	307.253	47.8301	253.287	36.2826	204.764	23.2308	321.181
298979	43.8947	239.451	48.3033	263.861	69.5407	177.12	58.2581	305.504	39.1989	307.08	47.6458	253.507	36.2487	205.054	23.1066	320.962
298980	43.7629	239.723	48.0905	264.015	69.5491	177.796	58.0545	305.277	39.0037	306.908	47.4613	253.726	36.2144	205.344	22.9818	320.744
298981	43.6309	239.994	47.8776	264.169	69.5552	178.472	57.8502	305.053	38.808	306.738	47.2766	253.944	36.1797	205.634	22.8564	320.526
298982	43.4984	240.264	47.6647	264.321	69.559	179.149	57.6454	304.832	38.6119	306.569	47.0918	254.16	36.1447	205.923	22.7305	320.309
298983	43.3656	240.533	47.4518	264.474	69.5606	179.826	57.4401	304.614	38.4154	306.401	46.9067	254.376	36.1093	206.213	22.6039	320.093
298984	43.2324	240.802	47.2388	264.625	69.5599	180.502	57.2342	304.398	38.2185	306.234	46.7214	254.59	36.0736	206.502	22.4768	319.877
298985	43.0989	241.069	47.0257	264.775	69.5569	181.179	57.0278	304.186	38.0211	306.069	46.5359	254.804	36.0375	206.791	22.3492	319.662
298986	42.965	241.336	46.8126	264.925	69.5516	181.855	56.8209	303.977	37.8233	305.905	46.3503	255.016	36.001	207.08	22.2209	319.447
298987	42.8308	241.601	46.5994	265.074	69.5441	182.531	56.6134	303.77	37.6251	305.742	46.1644	255.227	35.9642	207.368	22.0921	319.233
298988	42.6963	241.866	46.3862	265.222	69.5342	183.207	56.4055	303.567	37.4265	305.58	45.9784	255.438	35.927	207.656	21.9628	319.02
298989	42.5614	242.13	46.1729	265.37	69.5221	183.882	56.1971	303.366	37.2275	305.42	45.7922	255.647	35.8894	207.945	21.8329	318.807
298990	42.4262	242.393	45.9596	265.516	69.5078	184.556	55.9882	303.168	37.0281	305.261	45.6058	255.855	35.8515	208.232	21.7024	318.595
298991	42.2907	242.655	45.7463	265.663	69.4912	185.229	55.7788	302.972	36.8284	305.103	45.4193	256.062	35.8133	208.52	21.5714	318.383
298992	42.1549	242.916	45.5329	265.808	69.4723	185.901	55.569	302.779	36.6282	304.946	45.2326	256.268	35.7747	208.808	21.4398	318.172
298993	42.0187	243.177	45.3195	265.953	69.4511	186.572	55.3587	302.589	36.4276	304.79	45.0457	256.474	35.7357	209.095	21.3077	317.962
298994	41.8823	243.436	45.106	266.097	69.4278	187.242	55.148	302.401	36.2267	304.635	44.8587	256.678	35.6964	209.382	21.1751	317.752
298995	41.7455	243.695	44.8925	266.24	69.4022	187.91	54.9368	302.215	36.0254	304.482	44.6715	256.881	35.6567	209.669	21.0419	317.542
298996	41.6084	243.952	44.679	266.383	69.3743	188.577	54.7252	302.033	35.8237	304.33	44.4841	257.084	35.6167	209.956	20.9082	317.334
298997	41.471	244.209	44.4654	266.526	69.3443	189.242	54.5132	301.852	35.6217	304.179	44.2966	257.285	35.5763	210.242	20.7739	317.125
298998	41.3333	244.466	44.2518	266.667	69.312	189.905	54.3008	301.674	35.4193	304.029	44.109	257.486	35.5356	210.528	20.6392	316.918
298999	41.1954	244.721	44.0381	266.808	69.2776	190.566	54.0879	301.498	35.2165	303.88	43.9212	257.685	35.4946	210.814	20.5039	316.711
299000	41.0571	244.976	43.8245	266.949	69.2409	191.226	53.8747	301.325	35.0134	303.732	43.7333	257.884	35.4532	211.1	20.3681	316.504
299001	40.9186	245.229	43.6108	267.088	69.2021	191.883	53.6611	301.154	34.81	303.585	43.5452	258.082	35.4115	211.385	20.2317	316.298
299002	40.7797	245.482	43.3971	267.228	69.1611	192.538	53.4471	300.985	34.6062	303.44	43.357	258.279	35.3694	211.671	20.0949	316.093
299003	40.6406	245.734	43.1833	267.366	69.118	193.19	53.2327	300.818	34.402	303.295	43.1686	258.475	35.327	211.956	19.9575	315.888
299004	40.5012	245.986	42.9695	267.504	69.0727	193.84	53.0179	300.653	34.1975	303.151	42.9802	258.67	35.2842	212.241	19.8197	315.684
299005	40.3616	246.236	42.7558	267.642	69.0254	194.488	52.8028	300.491	33.9927	303.009	42.7916	258.865	35.2411	212.525	19.6813	315.481
299006	40.2217	246.486	42.5419	267.779	68.9759	195.133	52.5873	300.331	33.7876	302.867	42.6028	259.058	35.1977	212.81	19.5424	315.277
299007	40.0815	246.735	42.3281	267.916	68.9243	195.775	52.3715	300.172	33.5821	302.727	42.414	259.251	35.154	213.094	19.4031	315.075
299008	39.941	246.983	42.1143	268.052	68.8706	196.414	52.1553	300.016	33.3763	302.587	42.225	259.443	35.1099	213.378	19.2632	314.873
299009	39.8003	247.231	41.9004	268.187	68.8149	197.051	51.9388	299.862	33.1702	302.449	42.0359	259.635	35.0654	213.661	19.1228	314.672
299010	39.6593	247.477	41.6865	268.322	68.7571	197.684	51.722	299.71	32.9637	302.312	41.8467	259.825	35.0207	213.945	18.982	314.471
299011	39.5181	247.723	41.4726	268.457	68.6973	198.314	51.5048	299.56	32.757	302.175	41.6574	260.015	34.9756	214.228	18.8407	314.271
299012	39.3767	247.969	41.2587	268.591	68.6355	198.941	51.2873	299.411	32.5499	302.04	41.468	260.204	34.9302	214.511	18.6989	314.071
299013	39.235	248.213	41.0448	268.724	68.5717	199.565	51.0695	299.265	32.3426	301.905	41.2784	260.392	34.8845	214.794	18.5566	313.872
299014	39.093	248.457	40.8309	268.858	68.506	200.185	50.8514	299.12	32.1349	301.772	41.0888	260.58	34.8384	215.077	18.4138	313.673
299015	38.9508	248.7	40.6169	268.99	68.4382	200.803	50.6329	298.977	31.9269	301.639	40.8991	260.766	34.792	215.359	18.2706	313.475
299016	38.8084	248.942	40.403	269.122	68.3686	201.416	50.4142	298.836	31.7187	301.508	40.7092	260.952	34.7453	215.641	18.1269	313.277
299017	38.6658	249.184	40.189	269.254	68.297	202.026	50.1952	298.697	31.5101	301.377	40.5193	261.138	34.6983	215.923	17.9827	313.08
299018	38.5229	249.425	39.9751	269.385	68.2235	202.633	49.9759	298.56	31.3013	301.247	40.3292	261.322	34.6509	216.204	17.8381	312.884
299019	38.3798	249.665	39.7611	269.516	68.1482	203.236	49.7563	298.424	31.0921	301.118	40.1391	261.507	34.6033	216.486	17.693	312.688
299020	38.2364	249.905	39.5471	269.647	68.0709	203.835	49.5364	298.29	30.8827	300.991	39.9489	261.69	34.5553	216.767	17.5474	312.492
299021	38.0929	250.144	39.3331	269.777	67.9919	204.43	49.3162	298.158	30.673	300.864	39.7586	261.873	34.507	217.048	17.4014	312.297
299022	37.9491	250.382	39.1191	269.907	67.911	205.022	49.0958	298.027	30.463	300.738	39.5682	262.055	34.4584	217.328	17.2549	312.103
299023	37.8051	250.619	38.9052	270.036	67.8283	205.609	48.8751	297.898	30.2528	300.612	39.3777	262.236	34.4095	217.609	17.108	311.909
299024	37.661	250.856	38.6912	270.165	67.7439	206.193	48.6542	297.771	30.0423	300.488	39.1872	262.416	34.3602	217.889	16.9607	311.716
299025	37.5166	251.092	38.4772	270.293	67.6577	206.773	48.4329	297.645	29.8315	300.364	38.9965	262.597	34.3107	218.169	16.8128	311.523
299026	37.372	251.328	38.2632	270.421	67.5697	207.349	48.2115	297.521	29.6204	300.242	38.8058	262.776	34.2608	218.448	16.6646	311.331
299027	37.2272	251.563	38.0493	270.549	67.48	207.921	47.9898	297.398	29.4091	300.12	38.615	262.955	34.2107	218.728	16.5159	311.139
299028	37.0822	251.797	37.8353	270.677	67.3887	208.489	47.7678	297.277	29.1975	299.999	38.4241	263.133	34.1602	219.007	16.3668	310.948
299029	36.937	252.031	37.6213	270.804	67.2956	209.053	47.5456	297.157	28.9857	299.879	38.2332	263.311	34.1095	219.286	16.2172	310.757
299030	36.7916	252.264	37.4074	270.93	67.2009	209.613	47.3231	297.039	28.7736	299.76	38.0422	263.488	34.0584	219.564	16.0673	310.567
299031	36.6461	252.496	37.1934	271.057	67.1046	210.169	47.1005	296.922	28.5613	299.642	37.8511	263.664	34.007	219.843	15.9168	310.377
299032	36.5003	252.728	36.9795	271.183	67.0067	210.721	46.8776	296.807	28.3487	299.524	37.66	263.84	33.9554	220.121	15.766	310.188
299033	36.3544	252.959	36.7655	271.309	66.9071	211.269	46.6544	296.693	28.1358	299.407	37.4688	264.016	33.9034	220.399	15.6147	309.999
299034	36.2083	253.189	36.5516	271.434	66.806	211.812	46.4311	296.581	27.9228	299.291	37.2775	264.19	33.8512	220.677	15.4631	309.811
299035	36.062	253.419	36.3377	271.559	66.7034	212.352	46.2075	296.469	27.7094	299.176	37.0862	264.365	33.7986	220.954	15.311	309.623
299036	35.9155	253.649	36.1238	271.684	66.5992	212.887	45.9837	296.36	27.4959	299.062	36.8948	264.538	33.7458	221.231	15.1585	309.436
299037	35.7689	253.877	35.9099	271.808	66.4935	213.418	45.7597	296.251	27.2821	298.948	36.7034	264.712	33.6926	221.508	15.0056	309.25
299038	35.6221	254.106	35.6961	271.933	66.3863	213.945	45.5355	296.144	27.068	298.835	36.5119	264.884	33.6392	221.785	14.8522	309.063
299039	35.4751	254.333	35.4822	272.057	66.2777	214.468	45.3111	296.038	26.8538	298.723	36.3203	265.057	33.5855	222.061	14.6985	308.878
299040	35.3279	254.56	35.2684	272.18	66.1676	214.987	45.0865	295.934	26.6393	298.612	36.1287	265.228	33.5315	222.337	14.5444	308.692
299041	35.1806	254.786	35.0546	272.303	66.0561	215.501	44.8617	295.831	26.4246	298.502	35.9371	265.399	33.4772	222.613	14.3898	308.508
299042	35.0332	255.012	34.8408	272.426	65.9432	216.012	44.6367	295.729	26.2096	298.392	35.7454	265.57	33.4226	222.889	14.2349	308.324
299043	34.8856	255.238	34.627	272.549	65.8289	216.518	44.4115	295.628	25.9945	298.283	35.5537	265.74	33.3678	223.164	14.0796	308.14
299044	34.7378	255.462	34.4132	272.672	65.7132	217.02	44.1861	295.528	25.7791	298.175	35.3619	265.91	33.3127	223.439	13.9239	307.956
299045	34.5899	255.687	34.1995	272.794	65.5962	217.518	43.9605	295.43	25.5634	298.067	35.1701	266.079	33.2572	223.714	13.7678	307.774
299046	34.4418	255.91	33.9858	272.916	65.4779	218.013	43.7348	295.333	25.3476	297.96	34.9783	266.248	33.2016	223.989	13.6113	307.591
299047	34.2936	256.133	33.7721	273.038	65.3582	218.503	43.5088	295.237	25.1316	297.854	34.7864	266.416	33.1456	224.263	13.4544	307.409
299048	34.1453	256.356	33.5584	273.159	65.2373	218.988	43.2827	295.142	24.9154	297.749	34.5945	266.584	33.0894	224.537	13.2972	307.228
299049	33.9968	256.578	33.3448	273.281	65.1151	219.47	43.0564	295.048	24.6989	297.644	34.4025	266.751	33.0328	224.811	13.1395	307.047
299050	33.8482	256.8	33.1311	273.402	64.9917	219.948	42.83	294.956	24.4822	297.54	34.2105	266.918	32.9761	225.085	12.9815	306.866
299051	33.6994	257.021	32.9176	273.522	64.867	220.422	42.6033	294.864	24.2654	297.437	34.0185	267.085	32.919	225.358	12.8232	306.686
299052	33.5505	257.241	32.704	273.643	64.7411	220.892	42.3765	294.774	24.0483	297.334	33.8264	267.251	32.8617	225.631	12.6644	306.507
299053	33.4015	257.461	32.4905	273.763	64.6141	221.358	42.1496	294.685	23.831	297.232	33.6344	267.417	32.8041	225.904	12.5053	306.328
299054	33.2523	257.68	32.2769	273.884	64.4858	221.82	41.9224	294.597	23.6136	297.131	33.4423	267.582	32.7462	226.177	12.3458	306.149
299055	33.1031	257.899	32.0635	274.003	64.3564	222.278	41.6951	294.51	23.3959	297.03	33.2501	267.747	32.6881	226.449	12.1859	305.971
299056	32.9537	258.118	31.85	274.123	64.2259	222.732	41.4677	294.423	23.178	296.93	33.058	267.911	32.6297	226.721	12.0257	305.793
299057	32.8042	258.336	31.6366	274.243	64.0942	223.183	41.2401	294.338	22.96	296.831	32.8659	268.075	32.5711	226.993	11.8651	305.616
299058	32.6545	258.554	31.4232	274.362	63.9615	223.629	41.0123	294.254	22.7417	296.733	32.6737	268.239	32.5122	227.264	11.7042	305.439
299059	32.5048	258.771	31.2099	274.481	63.8276	224.072	40.7844	294.171	22.5233	296.635	32.4815	268.403	32.453	227.536	11.5429	305.262
299060	32.3549	258.987	30.9966	274.6	63.6927	224.511	40.5564	294.089	22.3047	296.538	32.2893	268.565	32.3936	227.807	11.3813	305.086
299061	32.205	259.204	30.7833	274.719	63.5568	224.946	40.3282	294.008	22.0859	296.441	32.097	268.728	32.3339	228.077	11.2193	304.911
299062	32.0549	259.419	30.5701	274.838	63.4198	225.378	40.0999	293.928	21.8669	296.345	31.9048	268.89	32.274	228.348	11.057	304.736
299063	31.9047	259.634	30.3569	274.956	63.2818	225.805	39.8714	293.849	21.6477	296.25	31.7125	269.052	32.2138	228.618	10.8943	304.561
299064	31.7544	259.849	30.1437	275.075	63.1428	226.23	39.6428	293.771	21.4284	296.155	31.5203	269.214	32.1534	228.888	10.7313	304.387
299065	31.604	260.063	29.9306	275.193	63.0028	226.65	39.414	293.694	21.2088	296.061	31.328	269.375	32.0927	229.158	10.5679	304.213
299066	31.4536	260.277	29.7175	275.311	62.8619	227.067	39.1851	293.617	20.9891	295.967	31.1357	269.536	32.0318	229.428	10.4042	304.039
299067	31.303	260.491	29.5045	275.429	62.7199	227.481	38.9561	293.542	20.7692	295.874	30.9435	269.696	31.9706	229.697	10.2402	303.866
299068	31.1523	260.704	29.2915	275.546	62.5771	227.89	38.727	293.467	20.5492	295.782	30.7512	269.856	31.9092	229.966	10.0759	303.694
299069	31.0015	260.916	29.0785	275.664	62.4333	228.297	38.4977	293.394	20.329	295.69	30.5589	270.016	31.8476	230.234	9.91116	303.522
299070	30.8507	261.129	28.8656	275.781	62.2887	228.7	38.2683	293.321	20.1086	295.599	30.3666	270.176	31.7857	230.503	9.74614	303.35
299071	30.6998	261.34	28.6527	275.899	62.1431	229.099	38.0387	293.249	19.888	295.508	30.1744	270.335	31.7236	230.771	9.5808	303.178
299072	30.5487	261.552	28.4399	276.016	61.9967	229.495	37.8091	293.178	19.6673	295.418	29.9821	270.494	31.6612	231.039	9.41512	303.007
299073	30.3976	261.763	28.2271	276.133	61.8494	229.888	37.5793	293.108	19.4464	295.329	29.7898	270.653	31.5986	231.307	9.24913	302.837
299074	30.2464	261.973	28.0144	276.25	61.7012	230.278	37.3494	293.039	19.2254	295.24	29.5975	270.811	31.5358	231.574	9.08282	302.667
299075	30.0952	262.183	27.8017	276.366	61.5523	230.664	37.1194	292.971	19.0041	295.152	29.4053	270.969	31.4727	231.841	8.91619	302.497
299076	29.9438	262.393	27.589	276.483	61.4025	231.047	36.8892	292.903	18.7828	295.065	29.213	271.127	31.4094	232.108	8.74925	302.327
299077	29.7924	262.602	27.3764	276.6	61.2518	231.426	36.659	292.836	18.5612	294.977	29.0208	271.284	31.3459	232.375	8.58199	302.159
299078	29.6409	262.811	27.1639	276.716	61.1005	231.803	36.4286	292.77	18.3395	294.891	28.8286	271.442	31.2821	232.642	8.41442	301.99
299079	29.4894	263.02	26.9514	276.833	60.9483	232.176	36.1982	292.705	18.1177	294.805	28.6364	271.599	31.2181	232.908	8.24655	301.822
299080	29.3377	263.228	26.739	276.949	60.7953	232.546	35.9676	292.64	17.8957	294.719	28.4442	271.755	31.1539	233.174	8.07837	301.654
299081	29.186	263.436	26.5266	277.065	60.6416	232.913	35.7369	292.577	17.6735	294.635	28.252	271.912	31.0895	233.439	7.90988	301.486
299082	29.0343	263.644	26.3143	277.181	60.4872	233.277	35.5061	292.514	17.4512	294.55	28.0598	272.068	31.0249	233.705	7.74109	301.319
299083	28.8825	263.851	26.102	277.297	60.332	233.638	35.2752	292.452	17.2288	294.466	27.8677	272.224	30.96	233.97	7.57201	301.153
299084	28.7306	264.057	25.8897	277.413	60.1761	233.996	35.0442	292.39	17.0062	294.383	27.6755	272.379	30.8949	234.235	7.40262	300.986
299085	28.5787	264.264	25.6776	277.529	60.0195	234.352	34.8131	292.33	16.7834	294.3	27.4834	272.535	30.8296	234.499	7.23294	300.82
299086	28.4267	264.47	25.4655	277.644	59.8622	234.704	34.5819	292.27	16.5606	294.218	27.2914	272.69	30.7641	234.764	7.06297	300.655
299087	28.2746	264.675	25.2534	277.76	59.7042	235.053	34.3506	292.211	16.3375	294.136	27.0993	272.845	30.6983	235.028	6.8927	300.49
299088	28.1226	264.881	25.0414	277.876	59.5456	235.4	34.1192	292.152	16.1143	294.055	26.9073	273	30.6324	235.292	6.72215	300.325
299089	27.9704	265.086	24.8295	277.991	59.3863	235.743	33.8877	292.095	15.891	293.974	26.7153	273.154	30.5662	235.556	6.55131	300.16
299090	27.8182	265.291	24.6176	278.106	59.2263	236.084	33.6561	292.038	15.6676	293.894	26.5233	273.309	30.4999	235.819	6.38018	299.996
299091	27.666	265.495	24.4058	278.222	59.0657	236.423	33.4244	291.981	15.444	293.815	26.3314	273.463	30.4333	236.082	6.20877	299.832
299092	27.5137	265.699	24.194	278.337	58.9045	236.758	33.1926	291.926	15.2202	293.736	26.1394	273.617	30.3665	236.345	6.03707	299.669
299093	27.3614	265.903	23.9824	278.452	58.7427	237.091	32.9608	291.871	14.9964	293.657	25.9475	273.77	30.2995	236.608	5.8651	299.506
299094	27.2091	266.106	23.7707	278.568	58.5802	237.421	32.7288	291.817	14.7724	293.579	25.7557	273.924	30.2324	236.87	5.69285	299.343
299095	27.0567	266.309	23.5591	278.683	58.4172	237.748	32.4968	291.763	14.5482	293.501	25.5639	274.077	30.165	237.132	5.52033	299.181
299096	26.9043	266.512	23.3477	278.798	58.2535	238.073	32.2646	291.71	14.324	293.424	25.3721	274.23	30.0974	237.394	5.34753	299.019
299097	26.7518	266.714	23.1362	278.913	58.0894	238.396	32.0324	291.658	14.0996	293.347	25.1804	274.383	30.0296	237.656	5.17446	298.857
299098	26.5993	266.916	22.9248	279.028	57.9246	238.715	31.8001	291.606	13.875	293.271	24.9887	274.536	29.9617	237.917	5.00112	298.695
299099	26.4468	267.118	22.7136	279.143	57.7593	239.033	31.5677	291.555	13.6504	293.195	24.797	274.688	29.8935	238.178	4.82752	298.534
299100	26.2943	267.32	22.5023	279.258	57.5934	239.348	31.3353	291.505	13.4256	293.12	24.6054	274.841	29.8251	238.439	4.65365	298.374
299101	26.1417	267.521	22.2911	279.373	57.427	239.66	31.1027	291.455	13.2007	293.045	24.4138	274.993	29.7566	238.7	4.47951	298.213
299102	25.9891	267.722	22.08	279.488	57.26	239.97	30.8701	291.406	12.9756	292.971	24.2223	275.145	29.6878	238.96	4.30511	298.053
299103	25.8365	267.923	21.869	279.603	57.0926	240.278	30.6374	291.358	12.7505	292.897	24.0308	275.297	29.6189	239.221	4.13046	297.894
299104	25.6838	268.123	21.6581	279.718	56.9246	240.584	30.4046	291.31	12.5252	292.823	23.8394	275.449	29.5498	239.481	3.95554	297.734
299105	25.5312	268.324	21.4472	279.833	56.7561	240.887	30.1718	291.263	12.2998	292.75	23.648	275.601	29.4805	239.74	3.78037	297.575
299106	25.3785	268.524	21.2364	279.948	56.5872	241.188	29.9389	291.216	12.0743	292.678	23.4566	275.752	29.411	240	3.60494	297.416
299107	25.2259	268.723	21.0257	280.063	56.4177	241.486	29.7059	291.17	11.8486	292.606	23.2654	275.903	29.3414	240.259	3.42927	297.258
299108	25.0732	268.923	20.815	280.178	56.2478	241.782	29.4728	291.125	11.6228	292.534	23.0741	276.055	29.2715	240.518	3.25334	297.099
299109	24.9205	269.122	20.6044	280.292	56.0774	242.077	29.2396	291.08	11.397	292.463	22.8829	276.206	29.2015	240.777	3.07716	296.942
299110	24.7677	269.32	20.3939	280.407	55.9065	242.369	29.0064	291.036	11.171	292.392	22.6918	276.356	29.1313	241.035	2.90073	296.784
299111	24.615	269.519	20.1835	280.522	55.7352	242.659	28.7731	290.992	10.9449	292.322	22.5007	276.507	29.0609	241.293	2.72406	296.627
299112	24.4623	269.717	19.9731	280.637	55.5634	242.946	28.5398	290.949	10.7186	292.252	22.3097	276.658	28.9904	241.552	2.54715	296.47
299113	24.3096	269.916	19.7629	280.752	55.3912	243.232	28.3064	290.906	10.4923	292.182	22.1188	276.808	28.9197	241.809	2.36999	296.313
299114	24.1569	270.114	19.5527	280.867	55.2186	243.516	28.0729	290.864	10.2659	292.113	21.9279	276.959	28.8488	242.067	2.1926	296.157
299115	24.0041	270.311	19.3426	280.982	55.0455	243.797	27.8393	290.823	10.0393	292.045	21.737	277.109	28.7777	242.324	2.01497	296.001
299116	23.8514	270.509	19.1325	281.097	54.872	244.077	27.6057	290.782	9.81263	291.977	21.5463	277.26	28.7065	242.581	1.8371	295.845
299117	23.6987	270.706	18.9226	281.212	54.6981	244.355	27.3721	290.742	9.58585	291.909	21.3556	277.41	28.6351	242.838	1.65899	295.689
299118	23.546	270.903	18.7127	281.327	54.5239	244.63	27.1383	290.702	9.35896	291.841	21.1649	277.56	28.5635	243.095	1.48066	295.534
299119	23.3933	271.1	18.5029	281.442	54.3492	244.904	26.9045	290.663	9.13197	291.774	20.9743	277.709	28.4918	243.351	1.30209	295.379
299120	23.2406	271.296	18.2933	281.557	54.1741	245.176	26.6706	290.624	8.90487	291.708	20.7838	277.859	28.42	243.607	1.12329	295.224
299121	23.0879	271.493	18.0836	281.672	53.9986	245.446	26.4367	290.586	8.67767	291.642	20.5934	278.009	28.3479	243.863	0.944269	295.07
299122	22.9353	271.689	17.8741	281.787	53.8228	245.714	26.2028	290.548	8.45036	291.576	20.403	278.159	28.2757	244.119	0.765018	294.916
299123	22.7826	271.885	17.6647	281.902	53.6466	245.98	25.9687	290.511	8.22295	291.511	20.2127	278.308	28.2034	244.374	0.585543	294.762
299124	22.63	272.08	17.4553	282.017	53.47	246.245	25.7346	290.475	7.99543	291.446	20.0225	278.458	28.1309	244.629	0.405845	294.608
299125	22.4774	272.276	17.2461	282.133	53.2931	246.508	25.5005	290.439	7.76782	291.382	19.8323	278.607	28.0582	244.884	0.225927	294.455
299126	22.3248	272.471	17.0369	282.248	53.1158	246.769	25.2663	290.403	7.54011	291.317	19.6422	278.757	27.9854	245.139	0.0457888	294.302
299127	22.1722	272.666	16.8279	282.363	52.9382	247.028	25.032	290.368	7.31229	291.254	19.4522	278.906	27.9124	245.394	-0.134567	294.149
299128	22.0197	272.861	16.6189	282.479	52.7602	247.286	24.7977	290.333	7.08438	291.19	19.2623	279.055	27.8393	245.648	-0.315138	293.996
299129	21.8672	273.056	16.41	282.594	52.5819	247.542	24.5633	290.299	6.85637	291.127	19.0725	279.204	27.7661	245.902	-0.495924	293.844
299130	21.7147	273.25	16.2012	282.71	52.4033	247.796	24.3289	290.266	6.62826	291.065	18.8827	279.353	27.6927	246.156	-0.676922	293.692
299131	21.5622	273.445	15.9925	282.825	52.2244	248.048	24.0945	290.233	6.40006	291.003	18.693	279.502	27.6192	246.41	-0.858132	293.54
299132	21.4098	273.639	15.7839	282.941	52.0451	248.299	23.86	290.2	6.17176	290.941	18.5034	279.651	27.5455	246.663	-1.03955	293.389
299133	21.2574	273.833	15.5754	283.057	51.8655	248.549	23.6254	290.168	5.94337	290.88	18.3139	279.8	27.4717	246.916	-1.22118	293.237
299134	21.105	274.027	15.367	283.173	51.6856	248.797	23.3908	290.136	5.71488	290.819	18.1244	279.949	27.3977	247.169	-1.40301	293.086
299135	20.9527	274.221	15.1587	283.288	51.5055	249.043	23.1561	290.105	5.48631	290.758	17.9351	280.098	27.3236	247.422	-1.58505	292.935
299136	20.8004	274.414	14.9504	283.404	51.325	249.288	22.9214	290.074	5.25764	290.698	17.7458	280.247	27.2494	247.674	-1.76729	292.784
299137	20.6482	274.607	14.7423	283.52	51.1442	249.531	22.6867	290.044	5.02888	290.638	17.5567	280.396	27.175	247.927	-1.94973	292.634
299138	20.496	274.801	14.5343	283.637	50.9632	249.773	22.4519	290.014	4.80003	290.578	17.3676	280.545	27.1005	248.179	-2.13237	292.484
299139	20.3438	274.994	14.3264	283.753	50.7818	250.013	22.217	289.985	4.57109	290.519	17.1786	280.693	27.0258	248.431	-2.31521	292.334
299140	20.1917	275.187	14.1186	283.869	50.6002	250.252	21.9822	289.956	4.34206	290.46	16.9897	280.842	26.9511	248.683	-2.49825	292.184
299141	20.0396	275.379	13.9109	283.986	50.4183	250.489	21.7472	289.928	4.11294	290.402	16.8009	280.991	26.8762	248.934	-2.68148	292.035
299142	19.8876	275.572	13.7033	284.102	50.2362	250.725	21.5123	289.9	3.88374	290.344	16.6122	281.139	26.8012	249.185	-2.86491	291.885
299143	19.7356	275.764	13.4958	284.219	50.0538	250.96	21.2772	289.872	3.65445	290.286	16.4235	281.288	26.7261	249.436	-3.04853	291.736
299144	19.5837	275.957	13.2884	284.335	49.8711	251.193	21.0422	289.845	3.42508	290.229	16.235	281.437	26.6508	249.687	-3.23234	291.587
299145	19.4318	276.149	13.0812	284.452	49.6882	251.425	20.8071	289.818	3.19562	290.171	16.0466	281.585	26.5754	249.938	-3.41634	291.439
299146	19.28	276.341	12.874	284.569	49.505	251.655	20.572	289.792	2.96607	290.115	15.8583	281.734	26.4999	250.188	-3.60053	291.29
299147	19.1282	276.533	12.6669	284.686	49.3216	251.885	20.3368	289.767	2.73645	290.058	15.6701	281.883	26.4243	250.438	-3.7849	291.142
299148	18.9765	276.725	12.46	284.803	49.138	252.113	20.1016	289.741	2.50674	290.003	15.482	282.031	26.3485	250.688	-3.96946	290.994
299149	18.8249	276.917	12.2531	284.92	48.9541	252.339	19.8664	289.716	2.27695	289.947	15.294	282.18	26.2727	250.938	-4.1542	290.846
299150	18.6733	277.108	12.0464	285.038	48.77	252.565	19.6311	289.692	2.04708	289.892	15.106	282.329	26.1967	251.188	-4.33912	290.698
299151	18.5218	277.3	11.8398	285.155	48.5856	252.788	19.3957	289.668	1.81712	289.837	14.9183	282.477	26.1206	251.437	-4.52422	290.551
299152	18.3703	277.491	11.6333	285.273	48.4011	253.011	19.1604	289.644	1.58709	289.782	14.7305	282.626	26.0444	251.686	-4.70951	290.403
299153	18.2189	277.682	11.4269	285.39	48.2163	253.233	18.925	289.621	1.35698	289.728	14.543	282.775	25.9681	251.935	-4.89497	290.256
299154	18.0676	277.873	11.2207	285.508	48.0313	253.453	18.6896	289.598	1.12679	289.674	14.3555	282.923	25.8917	252.184	-5.0806	290.109
299155	17.9164	278.065	11.0145	285.626	47.8461	253.673	18.4541	289.576	0.896529	289.62	14.1681	283.072	25.8152	252.432	-5.26641	289.962
299156	17.7652	278.255	10.8085	285.744	47.6607	253.891	18.2187	289.554	0.666187	289.567	13.9809	283.221	25.7386	252.681	-5.45239	289.816
299157	17.6141	278.446	10.6026	285.863	47.4751	254.108	17.9831	289.533	0.435768	289.514	13.7937	283.37	25.6618	252.929	-5.63855	289.669
299158	17.463	278.637	10.3968	285.981	47.2893	254.323	17.7476	289.512	0.205274	289.462	13.6067	283.519	25.585	253.177	-5.82487	289.523
299159	17.3121	278.828	10.1912	286.099	47.1032	254.538	17.512	289.491	-0.0252949	289.409	13.4198	283.668	25.5081	253.424	-6.01137	289.377
299160	17.1612	279.018	9.98561	286.218	46.917	254.752	17.2764	289.471	-0.255938	289.357	13.2331	283.817	25.431	253.672	-6.19803	289.231
299161	17.0104	279.209	9.78019	286.337	46.7306	254.964	17.0408	289.451	-0.486654	289.306	13.0464	283.966	25.3539	253.919	-6.38485	289.085
299162	16.8597	279.399	9.5749	286.456	46.5441	255.176	16.8051	289.431	-0.717444	289.254	12.8598	284.115	25.2767	254.167	-6.57185	288.94
299163	16.7091	279.59	9.36973	286.575	46.3573	255.386	16.5694	289.412	-0.948305	289.204	12.6734	284.264	25.1994	254.414	-6.759	288.794
299164	16.5585	279.78	9.16469	286.694	46.1704	255.595	16.3337	289.393	-1.17924	289.153	12.4871	284.413	25.122	254.66	-6.94632	288.649
299165	16.408	279.97	8.95978	286.814	45.9833	255.803	16.0979	289.375	-1.41024	289.103	12.3009	284.562	25.0445	254.907	-7.1338	288.504
299166	16.2577	280.16	8.75499	286.933	45.796	256.011	15.8621	289.357	-1.64132	289.053	12.1149	284.711	24.9669	255.153	-7.32143	288.359
299167	16.1074	280.35	8.55034	287.053	45.6085	256.217	15.6263	289.339	-1.87246	289.003	11.929	284.861	24.8892	255.4	-7.50923	288.214
299168	15.9572	280.54	8.34581	287.173	45.4209	256.422	15.3905	289.322	-2.10367	288.953	11.7432	285.01	24.8114	255.646	-7.69718	288.07
299169	15.8071	280.73	8.14142	287.293	45.2331	256.626	15.1547	289.306	-2.33495	288.904	11.5575	285.159	24.7336	255.892	-7.88529	287.925
299170	15.6571	280.92	7.93717	287.413	45.0452	256.829	14.9188	289.289	-2.5663	288.856	11.372	285.309	24.6557	256.137	-8.07355	287.781
299171	15.5072	281.11	7.73304	287.534	44.8571	257.032	14.6829	289.273	-2.79772	288.807	11.1866	285.459	24.5776	256.383	-8.26196	287.636
299172	15.3573	281.299	7.52905	287.654	44.6689	257.233	14.4469	289.258	-3.0292	288.759	11.0013	285.608	24.4995	256.628	-8.45052	287.492
299173	15.2076	281.489	7.3252	287.775	44.4805	257.434	14.211	289.242	-3.26075	288.711	10.8162	285.758	24.4214	256.873	-8.63923	287.348
299174	15.058	281.679	7.12148	287.896	44.2919	257.633	13.975	289.228	-3.49237	288.664	10.6312	285.908	24.3431	257.118	-8.82809	287.204
299175	14.9085	281.868	6.91791	288.017	44.1033	257.832	13.739	289.213	-3.72405	288.616	10.4463	286.058	24.2648	257.363	-9.0171	287.06
299176	14.7591	282.058	6.71447	288.138	43.9144	258.029	13.503	289.199	-3.95579	288.57	10.2616	286.208	24.1864	257.607	-9.20626	286.917
299177	14.6098	282.247	6.51118	288.26	43.7255	258.226	13.267	289.185	-4.1876	288.523	10.077	286.358	24.1079	257.852	-9.39556	286.773
299178	14.4606	282.437	6.30802	288.382	43.5364	258.422	13.0309	289.172	-4.41947	288.477	9.89259	286.508	24.0294	258.096	-9.585	286.63
299179	14.3115	282.626	6.10502	288.503	43.3471	258.617	12.7949	289.159	-4.6514	288.431	9.70829	286.658	23.9507	258.34	-9.77458	286.487
299180	14.1625	282.816	5.90215	288.625	43.1578	258.812	12.5588	289.146	-4.8834	288.385	9.52414	286.809	23.872	258.584	-9.9643	286.343
299181	14.0137	283.005	5.69943	288.748	42.9683	259.005	12.3227	289.134	-5.11546	288.339	9.34014	286.959	23.7933	258.827	-10.1542	286.2
299182	13.8649	283.194	5.49686	288.87	42.7787	259.198	12.0866	289.122	-5.34757	288.294	9.15628	287.11	23.7145	259.071	-10.3442	286.057
299183	13.7163	283.384	5.29443	288.993	42.5889	259.389	11.8504	289.11	-5.57975	288.25	8.97257	287.261	23.6356	259.314	-10.5343	285.914
299184	13.5677	283.573	5.09216	289.116	42.3991	259.58	11.6143	289.099	-5.81199	288.205	8.78901	287.411	23.5566	259.557	-10.7246	285.772
299185	13.4193	283.762	4.89003	289.239	42.2091	259.771	11.3781	289.088	-6.04429	288.161	8.60561	287.562	23.4776	259.8	-10.915	285.629
299186	13.2711	283.952	4.68806	289.362	42.0191	259.96	11.1419	289.078	-6.27665	288.117	8.42235	287.713	23.3985	260.043	-11.1055	285.486
299187	13.1229	284.141	4.48623	289.486	41.8289	260.149	10.9057	289.068	-6.50906	288.073	8.23925	287.865	23.3194	260.286	-11.2962	285.344
299188	12.9748	284.33	4.28456	289.61	41.6386	260.337	10.6695	289.058	-6.74154	288.03	8.05631	288.016	23.2402	260.528	-11.487	285.202
299189	12.8269	284.519	4.08305	289.734	41.4482	260.524	10.4332	289.049	-6.97407	287.987	7.87352	288.167	23.161	260.771	-11.6779	285.059
299190	12.6791	284.708	3.8817	289.858	41.2577	260.71	10.197	289.04	-7.20665	287.944	7.69089	288.319	23.0817	261.013	-11.869	284.917
299191	12.5315	284.898	3.6805	289.982	41.0671	260.896	9.96073	289.031	-7.4393	287.902	7.50842	288.471	23.0023	261.255	-12.0602	284.775
299192	12.384	285.087	3.47945	290.107	40.8764	261.081	9.72446	289.023	-7.67199	287.86	7.32611	288.622	22.9229	261.497	-12.2515	284.633
299193	12.2365	285.276	3.27857	290.232	40.6855	261.265	9.48817	289.015	-7.90475	287.818	7.14396	288.774	22.8435	261.738	-12.4429	284.491
299194	12.0893	285.465	3.07785	290.357	40.4947	261.449	9.25188	289.007	-8.13756	287.776	6.96198	288.926	22.764	261.98	-12.6345	284.349
299195	11.9421	285.654	2.8773	290.482	40.3037	261.632	9.01557	289	-8.37042	287.735	6.78016	289.079	22.6844	262.221	-12.8262	284.207
299196	11.7951	285.844	2.6769	290.608	40.1126	261.814	8.77926	288.993	-8.60334	287.694	6.59851	289.231	22.6048	262.462	-13.018	284.065
299197	11.6483	286.033	2.47668	290.734	39.9214	261.996	8.54293	288.986	-8.83631	287.653	6.41703	289.383	22.5252	262.704	-13.2099	283.923
299198	11.5016	286.222	2.27661	290.86	39.7302	262.176	8.3066	288.98	-9.06933	287.612	6.23572	289.536	22.4455	262.944	-13.4019	283.781
299199	11.355	286.411	2.07672	290.986	39.5388	262.357	8.07025	288.974	-9.30241	287.572	6.05458	289.689	22.3658	263.185	-13.5941	283.64
299200	11.2086	286.601	1.87699	291.113	39.3474	262.536	7.8339	288.969	-9.53553	287.532	5.87361	289.842	22.286	263.426	-13.7863	283.498
299201	11.0623	286.79	1.67744	291.24	39.1559	262.715	7.59754	288.963	-9.76871	287.493	5.69281	289.995	22.2062	263.666	-13.9787	283.357
299202	10.9161	286.979	1.47806	291.367	38.9644	262.894	7.36118	288.959	-10.0019	287.453	5.5122	290.148	22.1264	263.906	-14.1712	283.215
299203	10.7701	287.169	1.27885	291.494	38.7727	263.072	7.1248	288.954	-10.2352	287.414	5.33175	290.302	22.0465	264.147	-14.3638	283.074
299204	10.6242	287.358	1.07981	291.622	38.581	263.249	6.88842	288.95	-10.4686	287.375	5.15149	290.455	21.9666	264.387	-14.5565	282.932
299205	10.4786	287.547	0.880948	291.75	38.3892	263.425	6.65204	288.946	-10.7019	287.337	4.97141	290.609	21.8867	264.626	-14.7494	282.791
299206	10.333	287.737	0.682264	291.878	38.1974	263.601	6.41564	288.943	-10.9354	287.299	4.79151	290.763	21.8067	264.866	-14.9423	282.649
299207	10.1876	287.926	0.483758	292.006	38.0055	263.777	6.17925	288.94	-11.1688	287.261	4.61179	290.917	21.7267	265.106	-15.1354	282.508
299208	10.0424	288.116	0.285433	292.135	37.8135	263.951	5.94285	288.937	-11.4024	287.223	4.43225	291.072	21.6467	265.345	-15.3285	282.367
299209	9.89728	288.305	0.0872878	292.264	37.6214	264.126	5.70644	288.934	-11.6359	287.186	4.25291	291.226	21.5666	265.584	-15.5218	282.226
299210	9.75235	288.495	-0.110674	292.393	37.4293	264.299	5.47004	288.932	-11.8696	287.149	4.07375	291.381	21.4865	265.823	-15.7151	282.084
299211	9.60759	288.685	-0.308453	292.523	37.2372	264.473	5.23362	288.93	-12.1032	287.112	3.89477	291.536	21.4064	266.062	-15.9086	281.943
299212	9.46299	288.874	-0.506046	292.653	37.045	264.645	4.99721	288.929	-12.3369	287.075	3.71599	291.691	21.3263	266.301	-16.1021	281.802
299213	9.31855	289.064	-0.703453	292.783	36.8527	264.817	4.76079	288.928	-12.5707	287.039	3.53741	291.846	21.2461	266.54	-16.2958	281.661
299214	9.17427	289.254	-0.900671	292.913	36.6604	264.989	4.52438	288.927	-12.8045	287.003	3.35901	292.002	21.1659	266.778	-16.4896	281.519
299215	9.03016	289.444	-1.0977	293.044	36.468	265.16	4.28796	288.926	-13.0383	286.967	3.18081	292.157	21.0858	267.017	-16.6834	281.378
299216	8.88622	289.633	-1.29454	293.175	36.2756	265.33	4.05154	288.926	-13.2722	286.932	3.00281	292.313	21.0055	267.255	-16.8774	281.237
299217	8.74245	289.823	-1.49118	293.306	36.0831	265.5	3.81512	288.927	-13.5062	286.896	2.825	292.469	20.9253	267.493	-17.0714	281.096
299218	8.59885	290.013	-1.68763	293.438	35.8906	265.67	3.5787	288.927	-13.7402	286.861	2.6474	292.625	20.8451	267.731	-17.2656	280.954
299219	8.45542	290.203	-1.88389	293.57	35.698	265.839	3.34228	288.928	-13.9742	286.827	2.47	292.782	20.7648	267.969	-17.4598	280.813
299220	8.31217	290.394	-2.07995	293.702	35.5054	266.008	3.10587	288.929	-14.2082	286.792	2.2928	292.938	20.6846	268.207	-17.6541	280.672
299221	8.1691	290.584	-2.27581	293.835	35.3128	266.176	2.86945	288.931	-14.4424	286.758	2.1158	293.095	20.6043	268.445	-17.8485	280.531
299222	8.0262	290.774	-2.47147	293.968	35.1201	266.343	2.63304	288.933	-14.6765	286.724	1.93902	293.252	20.524	268.682	-18.043	280.389
299223	7.88348	290.964	-2.66693	294.101	34.9274	266.51	2.39663	288.935	-14.9107	286.691	1.76244	293.41	20.4437	268.919	-18.2376	280.248
299224	7.74095	291.155	-2.86218	294.234	34.7347	266.677	2.16022	288.938	-15.1449	286.658	1.58607	293.567	20.3634	269.157	-18.4323	280.107
299225	7.59859	291.345	-3.05723	294.368	34.5419	266.844	1.92382	288.941	-15.3792	286.625	1.40991	293.725	20.2831	269.394	-18.6271	279.965
299226	7.45642	291.536	-3.25208	294.502	34.3491	267.009	1.68742	288.944	-15.6135	286.592	1.23396	293.883	20.2028	269.631	-18.8219	279.824
299227	7.31444	291.726	-3.44672	294.637	34.1562	267.175	1.45103	288.947	-15.8479	286.559	1.05823	294.041	20.1225	269.868	-19.0169	279.683
299228	7.17265	291.917	-3.64114	294.771	33.9634	267.34	1.21464	288.951	-16.0823	286.527	0.882714	294.2	20.0422	270.104	-19.2119	279.541
299229	7.03104	292.108	-3.83536	294.907	33.7705	267.504	0.978253	288.956	-16.3167	286.495	0.707416	294.358	19.9619	270.341	-19.407	279.399
299230	6.88963	292.299	-4.02937	295.042	33.5776	267.669	0.741875	288.96	-16.5512	286.463	0.532338	294.517	19.8816	270.577	-19.6022	279.258
299231	6.74841	292.49	-4.22316	295.178	33.3846	267.832	0.505504	288.965	-16.7857	286.432	0.357481	294.676	19.8013	270.814	-19.7974	279.116
299232	6.60738	292.681	-4.41673	295.314	33.1917	267.996	0.269139	288.971	-17.0203	286.401	0.182847	294.836	19.721	271.05	-19.9927	278.975
299233	6.46655	292.872	-4.61009	295.45	32.9987	268.159	0.0327827	288.976	-17.2548	286.37	0.00843718	294.995	19.6407	271.286	-20.1882	278.833
299234	6.32592	293.063	-4.80323	295.587	32.8057	268.321	-0.203566	288.982	-17.4895	286.339	-0.165746	295.155	19.5604	271.522	-20.3836	278.691
299235	6.18549	293.255	-4.99614	295.725	32.6127	268.483	-0.439907	288.988	-17.7241	286.309	-0.339701	295.315	19.4801	271.758	-20.5792	278.549
299236	6.04525	293.446	-5.18884	295.862	32.4196	268.645	-0.676238	288.995	-17.9588	286.279	-0.513427	295.476	19.3999	271.994	-20.7748	278.407
299237	5.90522	293.638	-5.38131	296	32.2266	268.807	-0.91256	289.002	-18.1936	286.249	-0.686921	295.636	19.3196	272.23	-20.9705	278.265
299238	5.7654	293.829	-5.57355	296.138	32.0336	268.968	-1.14887	289.009	-18.4283	286.219	-0.860183	295.797	19.2394	272.466	-21.1663	278.123
299239	5.62578	294.021	-5.76557	296.277	31.8405	269.129	-1.38517	289.017	-18.6631	286.19	-1.03321	295.959	19.1591	272.701	-21.3622	277.981
299240	5.48637	294.213	-5.95736	296.416	31.6474	269.289	-1.62146	289.025	-18.898	286.161	-1.206	296.12	19.0789	272.936	-21.5581	277.839
299241	5.34717	294.405	-6.14892	296.555	31.4544	269.449	-1.85774	289.033	-19.1329	286.133	-1.37855	296.282	18.9987	273.172	-21.754	277.697
299242	5.20818	294.597	-6.34024	296.695	31.2613	269.609	-2.09401	289.042	-19.3678	286.104	-1.55086	296.444	18.9185	273.407	-21.9501	277.554
299243	5.0694	294.789	-6.53133	296.835	31.0682	269.768	-2.33027	289.05	-19.6027	286.076	-1.72293	296.606	18.8384	273.642	-22.1462	277.412
299244	4.93084	294.981	-6.72219	296.976	30.8751	269.927	-2.56651	289.06	-19.8377	286.048	-1.89475	296.768	18.7583	273.877	-22.3424	277.269
299245	4.7925	295.174	-6.9128	297.117	30.682	270.086	-2.80274	289.07	-20.0727	286.02	-2.06634	296.931	18.6781	274.112	-22.5386	277.127
299246	4.65437	295.366	-7.10318	297.258	30.4889	270.245	-3.03896	289.079	-20.3077	285.993	-2.23767	297.094	18.598	274.346	-22.7349	276.984
299247	4.51646	295.559	-7.29331	297.4	30.2959	270.403	-3.27516	289.09	-20.5428	285.966	-2.40875	297.257	18.518	274.581	-22.9313	276.841
299248	4.37877	295.752	-7.4832	297.542	30.1028	270.56	-3.51135	289.1	-20.7779	285.939	-2.57958	297.421	18.4379	274.816	-23.1277	276.698
299249	4.24131	295.945	-7.67285	297.684	29.9097	270.718	-3.74752	289.111	-21.013	285.913	-2.75016	297.585	18.3579	275.05	-23.3242	276.555
299250	4.10407	296.138	-7.86225	297.827	29.7166	270.875	-3.98367	289.123	-21.2482	285.886	-2.92049	297.749	18.2779	275.284	-23.5207	276.411
299251	3.96706	296.331	-8.0514	297.97	29.5236	271.032	-4.21981	289.135	-21.4834	285.86	-3.09056	297.914	18.198	275.519	-23.7173	276.268
299252	3.83027	296.524	-8.2403	298.114	29.3305	271.189	-4.45594	289.147	-21.7186	285.835	-3.26037	298.079	18.1181	275.753	-23.9139	276.125
299253	3.69372	296.718	-8.42894	298.258	29.1375	271.345	-4.69204	289.159	-21.9539	285.809	-3.42992	298.243	18.0382	275.987	-24.1106	275.981
299254	3.5574	296.911	-8.61733	298.402	28.9444	271.501	-4.92813	289.172	-22.1892	285.784	-3.59921	298.409	17.9583	276.221	-24.3074	275.837
299255	3.4213	297.105	-8.80547	298.547	28.7514	271.657	-5.1642	289.185	-22.4245	285.759	-3.76823	298.575	17.8785	276.455	-24.5042	275.693
299256	3.28545	297.299	-8.99334	298.693	28.5584	271.813	-5.40025	289.198	-22.6598	285.735	-3.93699	298.741	17.7987	276.689	-24.701	275.549
299257	3.14983	297.493	-9.18096	298.838	28.3655	271.968	-5.63628	289.212	-22.8952	285.71	-4.10548	298.907	17.719	276.922	-24.8979	275.405
299258	3.01445	297.687	-9.36831	298.984	28.1725	272.123	-5.8723	289.226	-23.1306	285.686	-4.2737	299.074	17.6393	277.156	-25.0948	275.261
299259	2.87931	297.881	-9.5554	299.131	27.9795	272.278	-6.10829	289.24	-23.3661	285.662	-4.44165	299.24	17.5596	277.389	-25.2918	275.116
299260	2.74442	298.076	-9.74222	299.278	27.7866	272.433	-6.34426	289.255	-23.6015	285.639	-4.60932	299.408	17.48	277.623	-25.4889	274.971
299261	2.60976	298.27	-9.92877	299.425	27.5937	272.587	-6.58021	289.27	-23.837	285.616	-4.77672	299.575	17.4004	277.856	-25.6859	274.827
299262	2.47535	298.465	-10.1151	299.573	27.4008	272.741	-6.81614	289.286	-24.0725	285.593	-4.94385	299.743	17.3209	278.089	-25.8831	274.682
299263	2.34119	298.66	-10.3011	299.722	27.208	272.895	-7.05204	289.302	-24.3081	285.57	-5.11069	299.911	17.2414	278.323	-26.0802	274.536
299264	2.20728	298.855	-10.4868	299.87	27.0152	273.048	-7.28793	289.318	-24.5436	285.548	-5.27725	300.08	17.1619	278.556	-26.2774	274.391
299265	2.07362	299.05	-10.6723	300.02	26.8224	273.202	-7.52379	289.334	-24.7792	285.526	-5.44353	300.249	17.0826	278.789	-26.4746	274.245
299266	1.94021	299.245	-10.8574	300.169	26.6296	273.355	-7.75962	289.351	-25.0148	285.504	-5.60952	300.418	17.0032	279.022	-26.6719	274.1
299267	1.80705	299.441	-11.0423	300.319	26.4369	273.508	-7.99543	289.369	-25.2505	285.482	-5.77523	300.587	16.9239	279.255	-26.8692	273.954
299268	1.67416	299.637	-11.227	300.47	26.2442	273.661	-8.23122	289.386	-25.4861	285.461	-5.94065	300.757	16.8447	279.487	-27.0666	273.808
299269	1.54151	299.832	-11.4113	300.621	26.0515	273.813	-8.46698	289.404	-25.7218	285.44	-6.10577	300.927	16.7655	279.72	-27.2639	273.661
299270	1.40913	300.028	-11.5953	300.772	25.8588	273.966	-8.70271	289.423	-25.9575	285.42	-6.2706	301.098	16.6864	279.953	-27.4613	273.515
299271	1.27701	300.225	-11.7791	300.924	25.6662	274.118	-8.93842	289.441	-26.1933	285.399	-6.43514	301.269	16.6073	280.185	-27.6588	273.368
299272	1.14515	300.421	-11.9625	301.077	25.4736	274.27	-9.1741	289.46	-26.429	285.379	-6.59938	301.44	16.5283	280.418	-27.8563	273.221
299273	1.01356	300.617	-12.1457	301.23	25.2811	274.422	-9.40975	289.48	-26.6648	285.359	-6.76332	301.611	16.4493	280.65	-28.0538	273.074
299274	0.882232	300.814	-12.3286	301.383	25.0886	274.574	-9.64538	289.5	-26.9006	285.34	-6.92695	301.783	16.3704	280.882	-28.2513	272.927
299275	0.751173	301.011	-12.5111	301.537	24.8962	274.725	-9.88097	289.52	-27.1364	285.321	-7.09029	301.955	16.2916	281.115	-28.4488	272.779
299276	0.620385	301.208	-12.6934	301.691	24.7038	274.876	-10.1165	289.54	-27.3723	285.302	-7.25331	302.128	16.2128	281.347	-28.6464	272.631
299277	0.489868	301.405	-12.8754	301.846	24.5114	275.027	-10.3521	289.561	-27.6082	285.283	-7.41603	302.301	16.1341	281.579	-28.844	272.483
299278	0.359625	301.602	-13.0571	302.002	24.3191	275.178	-10.5876	289.583	-27.844	285.265	-7.57844	302.474	16.0554	281.811	-29.0416	272.335
299279	0.229658	301.8	-13.2384	302.157	24.1268	275.329	-10.8231	289.604	-28.08	285.247	-7.74054	302.648	15.9769	282.043	-29.2393	272.186
299280	0.0999671	301.998	-13.4194	302.314	23.9346	275.48	-11.0585	289.626	-28.3159	285.229	-7.90232	302.822	15.8984	282.275	-29.4369	272.037
299281	-0.0294443	302.195	-13.6002	302.47	23.7424	275.63	-11.2939	289.649	-28.5518	285.212	-8.06379	302.997	15.8199	282.507	-29.6346	271.888
299282	-0.158575	302.394	-13.7806	302.628	23.5503	275.781	-11.5293	289.671	-28.7878	285.195	-8.22493	303.171	15.7415	282.739	-29.8323	271.739
299283	-0.287423	302.592	-13.9607	302.786	23.3582	275.931	-11.7646	289.695	-29.0238	285.178	-8.38576	303.347	15.6632	282.971	-30.03	271.589
299284	-0.415986	302.79	-14.1405	302.944	23.1661	276.081	-11.9999	289.718	-29.2598	285.161	-8.54626	303.522	15.585	283.202	-30.2278	271.439
299285	-0.544264	302.989	-14.32	303.103	22.9742	276.231	-12.2352	289.742	-29.4958	285.145	-8.70644	303.698	15.5069	283.434	-30.4255	271.289
299286	-0.672253	303.188	-14.4991	303.262	22.7823	276.381	-12.4705	289.766	-29.7319	285.129	-8.86629	303.874	15.4288	283.665	-30.6233	271.139
299287	-0.799952	303.387	-14.6779	303.422	22.5904	276.531	-12.7057	289.791	-29.9679	285.114	-9.02581	304.051	15.3508	283.897	-30.821	270.988
299288	-0.92736	303.586	-14.8564	303.582	22.3986	276.68	-12.9408	289.816	-30.204	285.098	-9.185	304.228	15.2728	284.128	-31.0188	270.837
299289	-1.05447	303.785	-15.0345	303.743	22.2068	276.83	-13.176	289.842	-30.4401	285.084	-9.34385	304.406	15.195	284.36	-31.2166	270.685
299290	-1.18129	303.985	-15.2124	303.905	22.0151	276.979	-13.411	289.868	-30.6762	285.069	-9.50237	304.583	15.1172	284.591	-31.4144	270.534
299291	-1.30781	304.185	-15.3898	304.067	21.8235	277.128	-13.6461	289.894	-30.9124	285.055	-9.66055	304.762	15.0396	284.822	-31.6122	270.382
299292	-1.43404	304.385	-15.567	304.229	21.6319	277.277	-13.8811	289.92	-31.1485	285.041	-9.81839	304.94	14.9619	285.053	-31.81	270.23
299293	-1.55996	304.585	-15.7438	304.392	21.4404	277.426	-14.1161	289.947	-31.3847	285.027	-9.97588	305.119	14.8844	285.285	-32.0078	270.077
299294	-1.68558	304.785	-15.9202	304.556	21.249	277.575	-14.351	289.975	-31.6209	285.014	-10.133	305.299	14.807	285.516	-32.2056	269.924
299295	-1.81089	304.986	-16.0963	304.72	21.0576	277.724	-14.5859	290.003	-31.8571	285.001	-10.2898	305.479	14.7296	285.747	-32.4033	269.771
299296	-1.9359	305.187	-16.2721	304.885	20.8663	277.873	-14.8208	290.031	-32.0933	284.988	-10.4463	305.659	14.6524	285.978	-32.6011	269.617
299297	-2.0606	305.388	-16.4475	305.05	20.6751	278.022	-15.0556	290.06	-32.3295	284.976	-10.6024	305.839	14.5752	286.209	-32.7989	269.463
299298	-2.18499	305.589	-16.6226	305.216	20.4839	278.17	-15.2904	290.089	-32.5657	284.964	-10.7581	306.021	14.4981	286.44	-32.9967	269.309
299299	-2.30907	305.79	-16.7972	305.382	20.2929	278.319	-15.5251	290.118	-32.802	284.952	-10.9135	306.202	14.4212	286.671	-33.1945	269.154
299300	-2.43283	305.992	-16.9716	305.549	20.1018	278.467	-15.7598	290.148	-33.0382	284.941	-11.0685	306.384	14.3443	286.901	-33.3923	268.999
299301	-2.55628	306.194	-17.1456	305.716	19.9109	278.615	-15.9944	290.178	-33.2745	284.93	-11.2232	306.566	14.2675	287.132	-33.59	268.844
299302	-2.67942	306.396	-17.3192	305.885	19.72	278.764	-16.229	290.209	-33.5108	284.919	-11.3775	306.749	14.1907	287.363	-33.7878	268.688
299303	-2.80223	306.598	-17.4924	306.053	19.5292	278.912	-16.4635	290.24	-33.7471	284.909	-11.5314	306.932	14.1141	287.594	-33.9855	268.532
299304	-2.92472	306.801	-17.6653	306.223	19.3385	279.06	-16.698	290.272	-33.9834	284.899	-11.685	307.115	14.0376	287.824	-34.1833	268.375
299305	-3.04689	307.003	-17.8378	306.392	19.1478	279.208	-16.9325	290.304	-34.2197	284.889	-11.8382	307.3	13.9612	288.055	-34.381	268.218
299306	-3.16873	307.207	-18.0099	306.563	18.9573	279.356	-17.1669	290.336	-34.456	284.88	-11.991	307.484	13.8849	288.285	-34.5787	268.061
299307	-3.29024	307.41	-18.1816	306.734	18.7668	279.504	-17.4012	290.369	-34.6924	284.871	-12.1434	307.669	13.8087	288.516	-34.7763	267.903
299308	-3.41143	307.613	-18.353	306.905	18.5764	279.652	-17.6355	290.402	-34.9287	284.862	-12.2955	307.854	13.7326	288.746	-34.974	267.745
299309	-3.53229	307.817	-18.5239	307.077	18.3861	279.8	-17.8698	290.436	-35.1651	284.854	-12.4472	308.04	13.6566	288.977	-35.1716	267.586
299310	-3.65281	308.02	-18.6945	307.25	18.1959	279.948	-18.104	290.47	-35.4014	284.846	-12.5985	308.226	13.5807	289.207	-35.3692	267.427
299311	-3.773	308.224	-18.8647	307.424	18.0057	280.096	-18.3381	290.505	-35.6378	284.839	-12.7494	308.413	13.5049	289.438	-35.5668	267.268
299312	-3.89285	308.429	-19.0345	307.598	17.8157	280.243	-18.5722	290.54	-35.8742	284.832	-12.8999	308.599	13.4292	289.668	-35.7644	267.108
299313	-4.01237	308.633	-19.2039	307.772	17.6257	280.391	-18.8062	290.575	-36.1106	284.825	-13.0501	308.787	13.3536	289.898	-35.9619	266.947
299314	-4.13154	308.838	-19.3729	307.947	17.4358	280.539	-19.0402	290.611	-36.347	284.819	-13.1998	308.975	13.2781	290.128	-36.1594	266.787
299315	-4.25037	309.043	-19.5415	308.123	17.246	280.687	-19.2742	290.648	-36.5834	284.813	-13.3491	309.163	13.2028	290.359	-36.3569	266.625
299316	-4.36886	309.248	-19.7097	308.3	17.0563	280.834	-19.508	290.685	-36.8198	284.807	-13.4981	309.352	13.1275	290.589	-36.5543	266.464
299317	-4.48701	309.454	-19.8775	308.477	16.8667	280.982	-19.7418	290.722	-37.0562	284.802	-13.6466	309.541	13.0524	290.819	-36.7517	266.301
299318	-4.6048	309.659	-20.0449	308.654	16.6772	281.13	-19.9756	290.76	-37.2927	284.797	-13.7947	309.731	12.9774	291.049	-36.9491	266.139
299319	-4.72225	309.865	-20.2118	308.833	16.4878	281.277	-20.2093	290.798	-37.5291	284.793	-13.9424	309.921	12.9025	291.279	-37.1464	265.975
299320	-4.83934	310.071	-20.3784	309.012	16.2985	281.425	-20.4429	290.837	-37.7655	284.788	-14.0898	310.112	12.8277	291.509	-37.3437	265.812
299321	-4.95608	310.278	-20.5445	309.191	16.1093	281.572	-20.6765	290.876	-38.002	284.785	-14.2367	310.303	12.753	291.739	-37.541	265.647
299322	-5.07247	310.484	-20.7102	309.372	15.9201	281.72	-20.91	290.916	-38.2384	284.782	-14.3832	310.495	12.6785	291.969	-37.7381	265.483
299323	-5.18849	310.691	-20.8755	309.553	15.7311	281.868	-21.1435	290.956	-38.4749	284.779	-14.5292	310.687	12.604	292.199	-37.9353	265.317
299324	-5.30416	310.898	-21.0403	309.734	15.5422	282.015	-21.3769	290.996	-38.7113	284.776	-14.6749	310.879	12.5297	292.429	-38.1324	265.152
299325	-5.41947	311.106	-21.2047	309.916	15.3534	282.163	-21.6102	291.037	-38.9478	284.774	-14.8201	311.072	12.4555	292.659	-38.3295	264.985
299326	-5.53441	311.313	-21.3687	310.099	15.1647	282.31	-21.8435	291.079	-39.1842	284.773	-14.9649	311.265	12.3815	292.889	-38.5265	264.818
299327	-5.64899	311.521	-21.5322	310.283	14.9761	282.458	-22.0767	291.121	-39.4207	284.772	-15.1093	311.459	12.3075	293.119	-38.7235	264.651
299328	-5.7632	311.729	-21.6953	310.467	14.7876	282.606	-22.3098	291.164	-39.6571	284.771	-15.2532	311.654	12.2337	293.349	-38.9204	264.483
299329	-5.87705	311.938	-21.8579	310.652	14.5992	282.753	-22.5429	291.207	-39.8936	284.771	-15.3967	311.849	12.1601	293.579	-39.1172	264.314
299330	-5.99052	312.146	-22.0201	310.837	14.4109	282.901	-22.7759	291.25	-40.13	284.771	-15.5398	312.044	12.0865	293.809	-39.314	264.145
299331	-6.10362	312.355	-22.1818	311.023	14.2228	283.049	-23.0088	291.294	-40.3665	284.771	-15.6824	312.24	12.0131	294.038	-39.5108	263.975
299332	-6.21634	312.564	-22.3431	311.21	14.0347	283.197	-23.2417	291.339	-40.603	284.772	-15.8246	312.436	11.9398	294.268	-39.7074	263.805
299333	-6.32869	312.773	-22.5039	311.398	13.8468	283.344	-23.4745	291.384	-40.8394	284.774	-15.9664	312.633	11.8666	294.498	-39.904	263.634
299334	-6.44066	312.983	-22.6643	311.586	13.659	283.492	-23.7072	291.43	-41.0759	284.776	-16.1077	312.83	11.7936	294.728	-40.1006	263.462
299335	-6.55225	313.193	-22.8241	311.775	13.4713	283.64	-23.9399	291.476	-41.3123	284.778	-16.2485	313.028	11.7207	294.957	-40.297	263.29
299336	-6.66345	313.403	-22.9836	311.964	13.2837	283.788	-24.1724	291.522	-41.5488	284.781	-16.3889	313.226	11.6479	295.187	-40.4935	263.117
299337	-6.77428	313.613	-23.1425	312.155	13.0962	283.936	-24.4049	291.57	-41.7852	284.784	-16.5289	313.425	11.5753	295.417	-40.6898	262.944
299338	-6.88471	313.824	-23.301	312.346	12.9088	284.084	-24.6374	291.618	-42.0217	284.788	-16.6684	313.624	11.5028	295.647	-40.886	262.769
299339	-6.99476	314.034	-23.459	312.538	12.7216	284.232	-24.8697	291.666	-42.2581	284.793	-16.8074	313.824	11.4305	295.876	-41.0822	262.594
299340	-7.10441	314.246	-23.6165	312.73	12.5345	284.38	-25.102	291.715	-42.4945	284.797	-16.9459	314.024	11.3583	296.106	-41.2783	262.419
299341	-7.21368	314.457	-23.7735	312.923	12.3475	284.528	-25.3342	291.764	-42.731	284.803	-17.084	314.225	11.2862	296.336	-41.4744	262.243
299342	-7.32255	314.669	-23.93	313.117	12.1607	284.676	-25.5663	291.814	-42.9674	284.808	-17.2217	314.426	11.2143	296.565	-41.6703	262.066
299343	-7.43102	314.88	-24.086	313.311	11.9739	284.825	-25.7983	291.865	-43.2038	284.815	-17.3588	314.628	11.1425	296.795	-41.8662	261.888
299344	-7.5391	315.093	-24.2415	313.507	11.7873	284.973	-26.0302	291.916	-43.4402	284.821	-17.4955	314.83	11.0709	297.025	-42.0619	261.71
299345	-7.64677	315.305	-24.3966	313.702	11.6009	285.122	-26.2621	291.967	-43.6766	284.829	-17.6317	315.033	10.9994	297.254	-42.2576	261.531
299346	-7.75404	315.518	-24.5511	313.899	11.4145	285.27	-26.4939	292.019	-43.913	284.837	-17.7674	315.236	10.9281	297.484	-42.4532	261.351
299347	-7.86091	315.731	-24.7051	314.096	11.2283	285.418	-26.7255	292.072	-44.1494	284.845	-17.9026	315.44	10.8569	297.713	-42.6487	261.17
299348	-7.96737	315.944	-24.8586	314.295	11.0422	285.567	-26.9572	292.126	-44.3858	284.854	-18.0373	315.644	10.7858	297.943	-42.8441	260.989
299349	-8.07343	316.157	-25.0115	314.493	10.8563	285.716	-27.1887	292.18	-44.6222	284.863	-18.1716	315.849	10.7149	298.173	-43.0394	260.807
299350	-8.17907	316.371	-25.164	314.693	10.6705	285.865	-27.4201	292.234	-44.8585	284.873	-18.3054	316.054	10.6442	298.402	-43.2346	260.624
299351	-8.2843	316.585	-25.3159	314.893	10.4848	286.014	-27.6514	292.289	-45.0949	284.884	-18.4386	316.26	10.5736	298.632	-43.4297	260.44
299352	-8.38912	316.799	-25.4673	315.094	10.2993	286.163	-27.8827	292.345	-45.3312	284.895	-18.5714	316.466	10.5032	298.861	-43.6247	260.256
299353	-8.49352	317.014	-25.6182	315.296	10.1139	286.312	-28.1138	292.401	-45.5675	284.906	-18.7036	316.673	10.4329	299.091	-43.8196	260.071
299354	-8.59751	317.228	-25.7685	315.499	9.9286	286.461	-28.3449	292.458	-45.8038	284.919	-18.8354	316.881	10.3628	299.321	-44.0144	259.885
299355	-8.70107	317.443	-25.9183	315.702	9.74349	286.61	-28.5759	292.516	-46.0401	284.931	-18.9666	317.089	10.2928	299.55	-44.209	259.697
299356	-8.80421	317.659	-26.0676	315.906	9.55852	286.76	-28.8067	292.574	-46.2764	284.945	-19.0974	317.297	10.223	299.78	-44.4036	259.51
299357	-8.90693	317.874	-26.2163	316.111	9.37369	286.909	-29.0375	292.633	-46.5127	284.959	-19.2276	317.506	10.1533	300.009	-44.598	259.321
299358	-9.00922	318.09	-26.3644	316.317	9.18902	287.058	-29.2682	292.693	-46.7489	284.974	-19.3573	317.716	10.0839	300.239	-44.7923	259.131
299359	-9.11109	318.306	-26.512	316.523	9.00449	287.208	-29.4987	292.753	-46.9852	284.989	-19.4865	317.926	10.0145	300.468	-44.9865	258.941
299360	-9.21252	318.522	-26.6591	316.73	8.82011	287.358	-29.7292	292.814	-47.2214	285.005	-19.6151	318.136	9.94538	300.698	-45.1805	258.75
299361	-9.31352	318.739	-26.8055	316.938	8.63588	287.508	-29.9596	292.875	-47.4576	285.021	-19.7433	318.347	9.87638	300.928	-45.3745	258.557
299362	-9.41409	318.956	-26.9514	317.147	8.4518	287.658	-30.1898	292.937	-47.6938	285.038	-19.8709	318.559	9.80755	301.157	-45.5683	258.364
299363	-9.51422	319.173	-27.0968	317.356	8.26787	287.808	-30.42	293	-47.9299	285.056	-19.9979	318.771	9.73888	301.387	-45.7619	258.17
299364	-9.61392	319.391	-27.2415	317.566	8.0841	287.958	-30.65	293.063	-48.1661	285.075	-20.1245	318.984	9.67038	301.616	-45.9554	257.975
299365	-9.71317	319.608	-27.3857	317.777	7.90049	288.109	-30.88	293.128	-48.4022	285.094	-20.2505	319.197	9.60205	301.846	-46.1488	257.779
299366	-9.81199	319.826	-27.5293	317.989	7.71703	288.259	-31.1098	293.192	-48.6383	285.114	-20.3759	319.411	9.53389	302.076	-46.3421	257.582
299367	-9.91036	320.045	-27.6723	318.201	7.53373	288.41	-31.3395	293.258	-48.8744	285.134	-20.5008	319.625	9.4659	302.305	-46.5352	257.384
299368	-10.0083	320.263	-27.8147	318.415	7.35059	288.561	-31.5691	293.324	-49.1104	285.155	-20.6252	319.84	9.39808	302.535	-46.7281	257.185
299369	-10.1058	320.482	-27.9565	318.629	7.16761	288.712	-31.7986	293.391	-49.3465	285.177	-20.749	320.055	9.33043	302.764	-46.9209	256.984
299370	-10.2028	320.701	-28.0977	318.844	6.9848	288.863	-32.028	293.459	-49.5825	285.2	-20.8723	320.271	9.26296	302.994	-47.1135	256.783
299371	-10.2994	320.92	-28.2383	319.059	6.80215	289.014	-32.2572	293.527	-49.8185	285.224	-20.9949	320.487	9.19566	303.224	-47.306	256.581
299372	-10.3955	321.14	-28.3783	319.276	6.61967	289.165	-32.4864	293.596	-50.0544	285.248	-21.1171	320.704	9.12854	303.453	-47.4983	256.378
299373	-10.4911	321.36	-28.5177	319.493	6.43735	289.317	-32.7154	293.666	-50.2903	285.273	-21.2387	320.922	9.06159	303.683	-47.6904	256.173
299374	-10.5863	321.58	-28.6565	319.711	6.2552	289.469	-32.9443	293.737	-50.5262	285.298	-21.3597	321.14	8.99483	303.913	-47.8824	255.968
299375	-10.6811	321.8	-28.7946	319.93	6.07323	289.62	-33.1731	293.808	-50.7621	285.325	-21.4801	321.358	8.92824	304.142	-48.0742	255.761
299376	-10.7754	322.021	-28.9322	320.15	5.89142	289.772	-33.4017	293.88	-50.998	285.352	-21.6	321.578	8.86183	304.372	-48.2658	255.554
299377	-10.8692	322.242	-29.069	320.37	5.70979	289.925	-33.6302	293.953	-51.2338	285.38	-21.7193	321.797	8.7956	304.602	-48.4573	255.345
299378	-10.9626	322.463	-29.2053	320.591	5.52833	290.077	-33.8586	294.027	-51.4695	285.409	-21.838	322.017	8.72956	304.832	-48.6485	255.135
299379	-11.0555	322.685	-29.3409	320.813	5.34705	290.229	-34.0868	294.101	-51.7053	285.439	-21.9561	322.238	8.6637	305.061	-48.8396	254.923
299380	-11.1479	322.907	-29.4759	321.036	5.16594	290.382	-34.315	294.177	-51.941	285.47	-22.0736	322.46	8.59802	305.291	-49.0305	254.711
299381	-11.2398	323.129	-29.6102	321.26	4.98502	290.535	-34.5429	294.253	-52.1767	285.501	-22.1906	322.682	8.53253	305.521	-49.2212	254.497
299382	-11.3313	323.351	-29.7439	321.485	4.80427	290.688	-34.7708	294.329	-52.4123	285.534	-22.307	322.904	8.46723	305.75	-49.4117	254.282
299383	-11.4223	323.574	-29.8769	321.71	4.62371	290.841	-34.9985	294.407	-52.6479	285.567	-22.4227	323.127	8.40212	305.98	-49.602	254.066
299384	-11.5128	323.797	-30.0093	321.936	4.44333	290.994	-35.2261	294.486	-52.8835	285.601	-22.5379	323.351	8.33719	306.21	-49.792	253.849
299385	-11.6029	324.02	-30.1409	322.163	4.26314	291.148	-35.4535	294.565	-53.119	285.636	-22.6524	323.575	8.27245	306.44	-49.9819	253.63
299386	-11.6924	324.243	-30.272	322.391	4.08313	291.301	-35.6808	294.645	-53.3545	285.672	-22.7664	323.799	8.20791	306.67	-50.1716	253.41
299387	-11.7815	324.467	-30.4023	322.619	3.90331	291.455	-35.9079	294.726	-53.5899	285.709	-22.8797	324.024	8.14355	306.9	-50.361	253.188
299388	-11.8701	324.691	-30.532	322.849	3.72368	291.609	-36.1349	294.808	-53.8253	285.747	-22.9925	324.25	8.07939	307.13	-50.5502	252.965
299389	-11.9582	324.915	-30.6609	323.079	3.54424	291.764	-36.3618	294.891	-54.0607	285.786	-23.1046	324.476	8.01543	307.36	-50.7392	252.741
299390	-12.0458	325.14	-30.7892	323.31	3.36499	291.918	-36.5884	294.975	-54.296	285.826	-23.2161	324.703	7.95165	307.589	-50.928	252.516
299391	-12.133	325.365	-30.9169	323.542	3.18594	292.073	-36.815	295.059	-54.5313	285.867	-23.327	324.93	7.88808	307.819	-51.1165	252.289
299392	-12.2196	325.59	-31.0437	323.775	3.00709	292.228	-37.0413	295.145	-54.7665	285.909	-23.4372	325.158	7.8247	308.049	-51.3048	252.061
299393	-12.3057	325.815	-31.17	324.008	2.82843	292.383	-37.2676	295.231	-55.0016	285.952	-23.5469	325.387	7.76152	308.279	-51.4928	251.831
299394	-12.3914	326.041	-31.2954	324.243	2.64996	292.538	-37.4936	295.318	-55.2368	285.997	-23.6559	325.616	7.69854	308.509	-51.6806	251.6
299395	-12.4765	326.267	-31.4202	324.478	2.47171	292.693	-37.7195	295.407	-55.4718	286.042	-23.7642	325.845	7.63576	308.739	-51.8682	251.367
299396	-12.5612	326.493	-31.5443	324.714	2.29365	292.849	-37.9452	295.496	-55.7068	286.089	-23.872	326.076	7.57318	308.969	-52.0555	251.132
299397	-12.6453	326.719	-31.6676	324.951	2.11579	293.005	-38.1708	295.586	-55.9418	286.136	-23.9791	326.306	7.5108	309.199	-52.2425	250.897
299398	-12.729	326.946	-31.7903	325.189	1.93814	293.161	-38.3962	295.677	-56.1767	286.185	-24.0855	326.537	7.44863	309.43	-52.4293	250.659
299399	-12.8121	327.173	-31.9122	325.427	1.7607	293.317	-38.6214	295.769	-56.4115	286.235	-24.1913	326.769	7.38666	309.66	-52.6157	250.42
299400	-12.8947	327.4	-32.0333	325.667	1.58347	293.474	-38.8464	295.862	-56.6463	286.287	-24.2964	327.002	7.3249	309.89	-52.8019	250.18
299401	-12.9768	327.628	-32.1537	325.907	1.40644	293.631	-39.0713	295.956	-56.881	286.339	-24.4009	327.234	7.26334	310.12	-52.9879	249.937
299402	-13.0584	327.856	-32.2734	326.148	1.22963	293.788	-39.296	296.051	-57.1157	286.393	-24.5047	327.468	7.20199	310.35	-53.1735	249.694
299403	-13.1395	328.084	-32.3924	326.39	1.05303	293.945	-39.5205	296.147	-57.3503	286.448	-24.6079	327.702	7.14085	310.58	-53.3588	249.448
299404	-13.2201	328.312	-32.5105	326.633	0.876647	294.103	-39.7448	296.245	-57.5848	286.505	-24.7104	327.936	7.07992	310.811	-53.5439	249.201
299405	-13.3002	328.541	-32.6279	326.876	0.70048	294.26	-39.9689	296.343	-57.8192	286.562	-24.8123	328.171	7.0192	311.041	-53.7286	248.952
299406	-13.3797	328.77	-32.7446	327.121	0.524531	294.418	-40.1928	296.442	-58.0536	286.622	-24.9134	328.407	6.95869	311.271	-53.913	248.701
299407	-13.4587	328.999	-32.8605	327.366	0.348801	294.576	-40.4166	296.542	-58.2879	286.682	-25.0139	328.643	6.89839	311.502	-54.0971	248.448
299408	-13.5372	329.228	-32.9756	327.612	0.173294	294.735	-40.6401	296.644	-58.5222	286.744	-25.1137	328.88	6.83831	311.732	-54.2809	248.194
299409	-13.6152	329.458	-33.0899	327.859	-0.00199079	294.893	-40.8635	296.746	-58.7563	286.808	-25.2129	329.117	6.77844	311.962	-54.4644	247.938
299410	-13.6926	329.688	-33.2035	328.107	-0.17705	295.052	-41.0866	296.85	-58.9904	286.873	-25.3113	329.354	6.71879	312.193	-54.6475	247.68
299411	-13.7695	329.918	-33.3163	328.355	-0.351883	295.212	-41.3096	296.955	-59.2244	286.939	-25.4091	329.593	6.65935	312.423	-54.8303	247.42
299412	-13.8459	330.149	-33.4282	328.605	-0.526487	295.371	-41.5323	297.061	-59.4583	287.007	-25.5062	329.832	6.60013	312.654	-55.0127	247.158
299413	-13.9217	330.379	-33.5394	328.855	-0.700862	295.531	-41.7548	297.168	-59.6921	287.077	-25.6026	330.071	6.54113	312.884	-55.1948	246.895
299414	-13.997	330.61	-33.6498	329.106	-0.875004	295.691	-41.9771	297.276	-59.9258	287.149	-25.6983	330.311	6.48235	313.115	-55.3766	246.629
299415	-14.0718	330.841	-33.7594	329.358	-1.04891	295.851	-42.1992	297.385	-60.1595	287.221	-25.7933	330.551	6.42378	313.345	-55.5579	246.361
299416	-14.1461	331.073	-33.8681	329.611	-1.22259	296.011	-42.4211	297.496	-60.3931	287.296	-25.8875	330.792	6.36544	313.576	-55.7389	246.091
299417	-14.2197	331.305	-33.9761	329.864	-1.39602	296.172	-42.6427	297.608	-60.6265	287.373	-25.9811	331.034	6.30733	313.806	-55.9195	245.82
299418	-14.2929	331.537	-34.0832	330.118	-1.56922	296.333	-42.8641	297.721	-60.8599	287.451	-26.074	331.276	6.24943	314.037	-56.0997	245.546
299419	-14.3655	331.769	-34.1895	330.374	-1.74218	296.494	-43.0853	297.835	-61.0931	287.531	-26.1661	331.518	6.19176	314.268	-56.2796	245.27
299420	-14.4376	332.002	-34.295	330.63	-1.91489	296.656	-43.3063	297.951	-61.3263	287.613	-26.2576	331.762	6.13432	314.498	-56.459	244.992
299421	-14.5091	332.234	-34.3997	330.887	-2.08736	296.818	-43.527	298.067	-61.5594	287.697	-26.3483	332.005	6.0771	314.729	-56.638	244.711
299422	-14.5801	332.467	-34.5035	331.144	-2.25959	296.98	-43.7475	298.186	-61.7923	287.783	-26.4383	332.249	6.02011	314.96	-56.8166	244.429
299423	-14.6505	332.701	-34.6064	331.403	-2.43156	297.142	-43.9677	298.305	-62.0251	287.871	-26.5276	332.494	5.96334	315.191	-56.9948	244.144
299424	-14.7204	332.934	-34.7085	331.662	-2.60329	297.305	-44.1877	298.426	-62.2578	287.961	-26.6161	332.739	5.90681	315.421	-57.1726	243.857
299425	-14.7897	333.168	-34.8098	331.922	-2.77477	297.468	-44.4074	298.548	-62.4904	288.053	-26.7039	332.985	5.8505	315.652	-57.3499	243.568
299426	-14.8584	333.402	-34.9102	332.183	-2.94599	297.631	-44.6269	298.671	-62.7229	288.147	-26.791	333.231	5.79443	315.883	-57.5267	243.276
299427	-14.9266	333.637	-35.0097	332.445	-3.11696	297.795	-44.8461	298.796	-62.9552	288.244	-26.8774	333.478	5.73859	316.114	-57.7032	242.982
299428	-14.9943	333.871	-35.1084	332.707	-3.28767	297.959	-45.0651	298.922	-63.1874	288.343	-26.963	333.725	5.68298	316.345	-57.8791	242.686
299429	-15.0614	334.106	-35.2062	332.971	-3.45812	298.123	-45.2838	299.05	-63.4195	288.444	-27.0478	333.973	5.6276	316.576	-58.0546	242.387
299430	-15.1279	334.341	-35.3031	333.235	-3.62831	298.287	-45.5022	299.179	-63.6515	288.547	-27.1319	334.221	5.57246	316.807	-58.2296	242.085
299431	-15.1938	334.576	-35.3992	333.5	-3.79824	298.452	-45.7203	299.31	-63.8833	288.653	-27.2153	334.47	5.51756	317.038	-58.4041	241.782
299432	-15.2592	334.812	-35.4943	333.766	-3.9679	298.617	-45.9382	299.441	-64.1149	288.762	-27.2979	334.719	5.46289	317.269	-58.5781	241.475
299433	-15.324	335.047	-35.5886	334.032	-4.1373	298.782	-46.1558	299.575	-64.3464	288.873	-27.3798	334.969	5.40846	317.501	-58.7516	241.166
299434	-15.3883	335.284	-35.682	334.3	-4.30643	298.948	-46.373	299.71	-64.5778	288.986	-27.4609	335.219	5.35427	317.732	-58.9246	240.855
299435	-15.452	335.52	-35.7744	334.568	-4.47529	299.114	-46.59	299.846	-64.809	289.103	-27.5412	335.47	5.30031	317.963	-59.097	240.54
299436	-15.5151	335.756	-35.866	334.837	-4.64388	299.28	-46.8067	299.984	-65.04	289.222	-27.6208	335.721	5.2466	318.194	-59.2689	240.223
299437	-15.5776	335.993	-35.9566	335.106	-4.81219	299.447	-47.0231	300.124	-65.2708	289.344	-27.6995	335.973	5.19313	318.426	-59.4403	239.904
299438	-15.6396	336.23	-36.0464	335.377	-4.98023	299.614	-47.2392	300.265	-65.5015	289.469	-27.7776	336.225	5.1399	318.657	-59.6111	239.581
299439	-15.701	336.467	-36.1352	335.648	-5.14799	299.781	-47.455	300.408	-65.732	289.597	-27.8548	336.478	5.08691	318.888	-59.7814	239.256
299440	-15.7617	336.704	-36.2231	335.92	-5.31547	299.949	-47.6705	300.552	-65.9624	289.728	-27.9313	336.731	5.03417	319.12	-59.9511	238.928
299441	-15.822	336.942	-36.3101	336.193	-5.48266	300.117	-47.8856	300.698	-66.1925	289.863	-28.007	336.985	4.98167	319.351	-60.1201	238.597
299442	-15.8816	337.18	-36.3961	336.466	-5.64958	300.285	-48.1004	300.846	-66.4224	290	-28.0819	337.239	4.92942	319.583	-60.2886	238.263
299443	-15.9406	337.418	-36.4812	336.74	-5.81621	300.454	-48.3149	300.995	-66.6521	290.141	-28.156	337.493	4.87741	319.814	-60.4565	237.926
299444	-15.9991	337.656	-36.5654	337.015	-5.98255	300.623	-48.529	301.147	-66.8817	290.286	-28.2293	337.748	4.82565	320.046	-60.6238	237.586
299445	-16.057	337.895	-36.6486	337.291	-6.1486	300.792	-48.7428	301.3	-67.111	290.434	-28.3019	338.004	4.77414	320.277	-60.7904	237.243
299446	-16.1143	338.134	-36.7308	337.568	-6.31435	300.961	-48.9563	301.454	-67.34	290.585	-28.3736	338.26	4.72288	320.509	-60.9564	236.897
299447	-16.171	338.373	-36.8121	337.845	-6.47982	301.131	-49.1694	301.611	-67.5689	290.741	-28.4445	338.517	4.67187	320.741	-61.1217	236.548
299448	-16.2271	338.612	-36.8925	338.123	-6.64499	301.302	-49.3821	301.769	-67.7975	290.9	-28.5147	338.773	4.62111	320.972	-61.2863	236.195
299449	-16.2826	338.852	-36.9719	338.402	-6.80985	301.472	-49.5945	301.929	-68.0259	291.063	-28.584	339.031	4.5706	321.204	-61.4503	235.84
299450	-16.3375	339.091	-37.0503	338.681	-6.97442	301.643	-49.8065	302.091	-68.254	291.231	-28.6526	339.289	4.52035	321.436	-61.6136	235.481
299451	-16.3918	339.331	-37.1277	338.961	-7.13869	301.815	-50.0181	302.255	-68.4818	291.403	-28.7203	339.547	4.47035	321.668	-61.7762	235.119
299452	-16.4456	339.571	-37.2042	339.242	-7.30265	301.986	-50.2294	302.421	-68.7094	291.579	-28.7872	339.806	4.4206	321.9	-61.938	234.753
299453	-16.4987	339.812	-37.2796	339.524	-7.46631	302.159	-50.4402	302.588	-68.9367	291.76	-28.8533	340.065	4.37111	322.132	-62.0991	234.384
299454	-16.5512	340.052	-37.3541	339.806	-7.62966	302.331	-50.6507	302.758	-69.1638	291.945	-28.9186	340.325	4.32187	322.363	-62.2595	234.012
299455	-16.6031	340.293	-37.4276	340.089	-7.79269	302.504	-50.8608	302.93	-69.3905	292.135	-28.983	340.584	4.27289	322.596	-62.4191	233.636
299456	-16.6545	340.534	-37.5001	340.372	-7.95542	302.677	-51.0704	303.103	-69.6169	292.33	-29.0467	340.845	4.22417	322.828	-62.578	233.256
299457	-16.7052	340.775	-37.5717	340.657	-8.11783	302.851	-51.2796	303.279	-69.843	292.53	-29.1095	341.106	4.1757	323.06	-62.736	232.873
299458	-16.7553	341.016	-37.6422	340.942	-8.27992	303.024	-51.4885	303.457	-70.0687	292.736	-29.1714	341.367	4.1275	323.292	-62.8933	232.487
299459	-16.8048	341.258	-37.7117	341.227	-8.44169	303.199	-51.6968	303.637	-70.2941	292.947	-29.2326	341.629	4.07956	323.524	-63.0497	232.096
299460	-16.8536	341.5	-37.7802	341.513	-8.60314	303.373	-51.9048	303.819	-70.5192	293.163	-29.2929	341.891	4.03188	323.756	-63.2053	231.702
299461	-16.9019	341.741	-37.8477	341.8	-8.76427	303.548	-52.1123	304.003	-70.7439	293.386	-29.3524	342.154	3.98446	323.988	-63.36	231.305
299462	-16.9496	341.983	-37.9141	342.088	-8.92507	303.724	-52.3193	304.19	-70.9682	293.614	-29.411	342.416	3.9373	324.221	-63.5139	230.903
299463	-16.9966	342.226	-37.9796	342.376	-9.08554	303.9	-52.5259	304.378	-71.1921	293.849	-29.4688	342.68	3.8904	324.453	-63.6669	230.498
299464	-17.0431	342.468	-38.044	342.665	-9.24568	304.076	-52.732	304.57	-71.4156	294.09	-29.5258	342.943	3.84377	324.685	-63.819	230.089
299465	-17.0889	342.711	-38.1073	342.954	-9.40549	304.252	-52.9377	304.763	-71.6387	294.338	-29.5819	343.208	3.79741	324.918	-63.9703	229.675
299466	-17.1341	342.954	-38.1697	343.244	-9.56497	304.43	-53.1428	304.958	-71.8614	294.592	-29.6371	343.472	3.75131	325.15	-64.1205	229.258
299467	-17.1787	343.197	-38.231	343.535	-9.7241	304.607	-53.3475	305.156	-72.0835	294.854	-29.6915	343.737	3.70548	325.383	-64.2699	228.837
299468	-17.2227	343.44	-38.2913	343.826	-9.8829	304.785	-53.5517	305.357	-72.3052	295.123	-29.7451	344.002	3.65992	325.615	-64.4182	228.411
299469	-17.266	343.684	-38.3505	344.118	-10.0414	304.963	-53.7553	305.559	-72.5265	295.4	-29.7978	344.268	3.61462	325.848	-64.5656	227.982
299470	-17.3087	343.927	-38.4087	344.411	-10.1995	305.142	-53.9585	305.765	-72.7472	295.685	-29.8497	344.534	3.5696	326.08	-64.712	227.548
299471	-17.3508	344.171	-38.4658	344.704	-10.3572	305.32	-54.1611	305.972	-72.9673	295.978	-29.9006	344.8	3.52484	326.313	-64.8573	227.11
299472	-17.3923	344.415	-38.5219	344.997	-10.5146	305.5	-54.3632	306.183	-73.1869	296.279	-29.9507	345.067	3.48036	326.546	-65.0017	226.668
299473	-17.4332	344.659	-38.5769	345.291	-10.6717	305.68	-54.5647	306.396	-73.406	296.589	-30	345.334	3.43614	326.778	-65.145	226.222
299474	-17.4734	344.903	-38.6308	345.586	-10.8284	305.86	-54.7657	306.611	-73.6244	296.909	-30.0484	345.601	3.3922	327.011	-65.2872	225.771
299475	-17.513	345.148	-38.6837	345.881	-10.9848	306.041	-54.9662	306.829	-73.8422	297.238	-30.0959	345.869	3.34853	327.244	-65.4283	225.316
299476	-17.5519	345.392	-38.7355	346.177	-11.1408	306.222	-55.166	307.05	-74.0594	297.576	-30.1426	346.137	3.30514	327.477	-65.5683	224.856
299477	-17.5903	345.637	-38.7862	346.473	-11.2964	306.403	-55.3653	307.273	-74.2759	297.925	-30.1883	346.405	3.26202	327.71	-65.7072	224.392
299478	-17.628	345.882	-38.8359	346.77	-11.4517	306.585	-55.564	307.5	-74.4916	298.285	-30.2332	346.674	3.21918	327.943	-65.8449	223.924
299479	-17.665	346.127	-38.8845	347.067	-11.6066	306.767	-55.762	307.729	-74.7067	298.656	-30.2772	346.943	3.17661	328.176	-65.9814	223.451
299480	-17.7015	346.373	-38.932	347.365	-11.7611	306.95	-55.9595	307.961	-74.9209	299.038	-30.3204	347.212	3.13432	328.409	-66.1168	222.973
299481	-17.7373	346.618	-38.9784	347.663	-11.9153	307.133	-56.1563	308.195	-75.1344	299.432	-30.3627	347.482	3.0923	328.642	-66.251	222.491
299482	-17.7724	346.864	-39.0237	347.962	-12.0691	307.317	-56.3525	308.433	-75.347	299.838	-30.404	347.752	3.05057	328.875	-66.3839	222.004
299483	-17.807	347.109	-39.0679	348.261	-12.2225	307.501	-56.5481	308.673	-75.5588	300.257	-30.4445	348.022	3.00911	329.108	-66.5155	221.512
299484	-17.8408	347.355	-39.1111	348.56	-12.3756	307.685	-56.743	308.917	-75.7696	300.69	-30.4841	348.293	2.96794	329.341	-66.6459	221.016
299485	-17.8741	347.601	-39.1531	348.86	-12.5282	307.87	-56.9372	309.164	-75.9795	301.137	-30.5228	348.563	2.92704	329.574	-66.775	220.514
299486	-17.9067	347.847	-39.194	349.161	-12.6805	308.056	-57.1307	309.414	-76.1884	301.598	-30.5607	348.834	2.88643	329.808	-66.9027	220.008
299487	-17.9387	348.094	-39.2339	349.462	-12.8324	308.241	-57.3235	309.666	-76.3962	302.074	-30.5976	349.106	2.8461	330.041	-67.0291	219.498
299488	-17.97	348.34	-39.2726	349.763	-12.9839	308.428	-57.5157	309.923	-76.603	302.566	-30.6336	349.377	2.80605	330.274	-67.1542	218.982
299489	-18.0007	348.587	-39.3102	350.065	-13.1351	308.614	-57.7071	310.182	-76.8085	303.075	-30.6688	349.649	2.76628	330.508	-67.2778	218.461
299490	-18.0307	348.833	-39.3468	350.367	-13.2858	308.802	-57.8978	310.444	-77.0129	303.6	-30.703	349.921	2.7268	330.741	-67.4	217.936
299491	-18.0601	349.08	-39.3822	350.669	-13.4361	308.989	-58.0877	310.71	-77.2161	304.143	-30.7364	350.194	2.6876	330.974	-67.5208	217.405
299492	-18.0889	349.327	-39.4164	350.972	-13.5861	309.177	-58.2769	310.979	-77.4179	304.705	-30.7688	350.466	2.64869	331.208	-67.6402	216.87
299493	-18.117	349.574	-39.4496	351.275	-13.7356	309.366	-58.4653	311.252	-77.6183	305.286	-30.8004	350.739	2.61007	331.442	-67.758	216.33
299494	-18.1444	349.821	-39.4817	351.579	-13.8847	309.555	-58.6529	311.528	-77.8173	305.887	-30.831	351.012	2.57173	331.675	-67.8743	215.784
299495	-18.1712	350.068	-39.5126	351.882	-14.0334	309.744	-58.8397	311.807	-78.0147	306.509	-30.8607	351.285	2.53368	331.909	-67.9891	215.234
299496	-18.1974	350.316	-39.5424	352.187	-14.1818	309.934	-59.0257	312.09	-78.2105	307.152	-30.8896	351.559	2.49592	332.142	-68.1024	214.679
299497	-18.2229	350.563	-39.5711	352.491	-14.3297	310.124	-59.2108	312.377	-78.4047	307.819	-30.9175	351.832	2.45844	332.376	-68.214	214.118
299498	-18.2478	350.811	-39.5986	352.796	-14.4772	310.315	-59.3951	312.667	-78.597	308.509	-30.9445	352.106	2.42126	332.61	-68.324	213.553
299499	-18.272	351.059	-39.6251	353.101	-14.6242	310.506	-59.5786	312.961	-78.7875	309.224	-30.9706	352.38	2.38437	332.844	-68.4325	212.982
299500	-18.2955	351.307	-39.6504	353.406	-14.7709	310.698	-59.7611	313.259	-78.9761	309.964	-30.9958	352.655	2.34776	333.077	-68.5392	212.407
299501	-18.3184	351.555	-39.6745	353.712	-14.9171	310.89	-59.9428	313.56	-79.1625	310.731	-31.0201	352.929	2.31145	333.311	-68.6443	211.827
299502	-18.3407	351.803	-39.6976	354.018	-15.0629	311.083	-60.1236	313.866	-79.3469	311.526	-31.0435	353.204	2.27543	333.545	-68.7476	211.241
299503	-18.3623	352.051	-39.7195	354.324	-15.2083	311.276	-60.3034	314.175	-79.5289	312.35	-31.0659	353.479	2.23971	333.779	-68.8492	210.65
299504	-18.3832	352.299	-39.7402	354.63	-15.3533	311.47	-60.4823	314.488	-79.7085	313.204	-31.0874	353.754	2.20428	334.013	-68.9491	210.055
299505	-18.4035	352.547	-39.7598	354.937	-15.4978	311.664	-60.6602	314.805	-79.8855	314.089	-31.1081	354.029	2.16914	334.247	-69.0471	209.454
299506	-18.4231	352.796	-39.7783	355.244	-15.6419	311.859	-60.8372	315.126	-80.0599	315.006	-31.1278	354.304	2.1343	334.481	-69.1434	208.849
299507	-18.4421	353.044	-39.7956	355.55	-15.7855	312.054	-61.0131	315.451	-80.2315	315.957	-31.1465	354.58	2.09975	334.715	-69.2378	208.239
299508	-18.4604	353.293	-39.8118	355.858	-15.9288	312.25	-61.188	315.78	-80.4001	316.943	-31.1644	354.855	2.0655	334.95	-69.3303	207.623
299509	-18.4781	353.541	-39.8269	356.165	-16.0715	312.446	-61.3619	316.114	-80.5656	317.965	-31.1813	355.131	2.03155	335.184	-69.421	207.003
299510	-18.4951	353.79	-39.8408	356.472	-16.2138	312.642	-61.5348	316.452	-80.7278	319.025	-31.1974	355.407	1.99789	335.418	-69.5097	206.378
299511	-18.5114	354.039	-39.8535	356.78	-16.3557	312.839	-61.7066	316.794	-80.8865	320.122	-31.2125	355.683	1.96453	335.652	-69.5965	205.749
299512	-18.5271	354.288	-39.8651	357.088	-16.4971	313.037	-61.8772	317.14	-81.0416	321.259	-31.2266	355.959	1.93147	335.887	-69.6813	205.114
299513	-18.5421	354.537	-39.8756	357.396	-16.6381	313.235	-62.0468	317.491	-81.1928	322.437	-31.2399	356.235	1.89871	336.121	-69.7642	204.475
299514	-18.5565	354.786	-39.8849	357.704	-16.7786	313.433	-62.2152	317.846	-81.3399	323.656	-31.2522	356.511	1.86625	336.355	-69.845	203.831
299515	-18.5702	355.035	-39.8931	358.012	-16.9187	313.633	-62.3825	318.205	-81.4828	324.919	-31.2636	356.788	1.83409	336.59	-69.9237	203.183
299516	-18.5832	355.284	-39.9001	358.32	-17.0582	313.832	-62.5486	318.57	-81.6212	326.224	-31.2741	357.064	1.80223	336.824	-70.0005	202.53
299517	-18.5956	355.533	-39.9059	358.628	-17.1974	314.032	-62.7135	318.938	-81.7549	327.574	-31.2836	357.34	1.77067	337.059	-70.0751	201.872
299518	-18.6074	355.782	-39.9106	358.936	-17.336	314.233	-62.8772	319.312	-81.8836	328.968	-31.2922	357.617	1.73941	337.293	-70.1476	201.211
299519	-18.6184	356.031	-39.9142	359.245	-17.4742	314.434	-63.0396	319.69	-82.0072	330.407	-31.2999	357.894	1.70846	337.528	-70.2179	200.545
299520	-18.6288	356.281	-39.9166	359.553	-17.6119	314.635	-63.2008	320.072	-82.1254	331.891	-31.3067	358.17	1.67781	337.762	-70.2861	199.875
