Minute of Year [min]	Potsdam.Altitude [Deg]	Potsdam.Azimuth [Deg]	Shanghai.Altitude [Deg]	Shanghai.Azimuth [Deg]	Kaxgar.Altitude [Deg]	Kaxgar.Azimuth [Deg]	Singapur.Altitude [Deg]	Singapur.Azimuth [Deg]	Lima.Altitude [Deg]	Lima.Azimuth [Deg]	Denver.Altitude [Deg]	Denver.Azimuth [Deg]	Barrow.Altitude [Deg]	Barrow.Azimuth [Deg]	Melbourne.Altitude [Deg]	Melbourne.Azimuth [Deg]
426240	-50.3766	2.83723	-71.0025	15.8104	-45.6482	295.683	-73.3592	226.186	-65.1574	176.126	-62.808	8.40633	-30.4473	339.546	-39.5288	181.748
426241	-50.3688	3.21932	-70.9431	16.5357	-45.8221	295.928	-73.5385	225.606	-65.1394	175.547	-62.7792	8.93588	-30.4753	339.827	-39.534	181.432
426242	-50.36	3.60128	-70.8812	17.2568	-45.9957	296.175	-73.716	225.013	-65.1189	174.97	-62.7487	9.46444	-30.503	340.108	-39.5382	181.116
426243	-50.3501	3.9831	-70.8166	17.9735	-46.1688	296.422	-73.8917	224.407	-65.0961	174.393	-62.7165	9.99194	-30.5303	340.389	-39.5412	180.799
426244	-50.3392	4.36477	-70.7496	18.6857	-46.3417	296.671	-74.0655	223.787	-65.0707	173.817	-62.6825	10.5183	-30.5573	340.671	-39.5432	180.483
426245	-50.3274	4.74628	-70.68	19.3932	-46.5141	296.921	-74.2373	223.153	-65.0429	173.243	-62.6468	11.0436	-30.5839	340.952	-39.5441	180.167
426246	-50.3145	5.12761	-70.608	20.096	-46.6862	297.172	-74.407	222.506	-65.0127	172.67	-62.6093	11.5676	-30.6101	341.234	-39.5439	179.851
426247	-50.3005	5.50874	-70.5335	20.7939	-46.8578	297.425	-74.5747	221.843	-64.98	172.098	-62.5702	12.0903	-30.6359	341.516	-39.5426	179.535
426248	-50.2856	5.88966	-70.4566	21.4868	-47.0291	297.68	-74.7401	221.167	-64.945	171.528	-62.5293	12.6117	-30.6614	341.798	-39.5402	179.219
426249	-50.2697	6.27036	-70.3772	22.1746	-47.2	297.935	-74.9034	220.475	-64.9075	170.96	-62.4867	13.1318	-30.6865	342.08	-39.5367	178.903
426250	-50.2527	6.65082	-70.2955	22.8573	-47.3705	298.192	-75.0643	219.768	-64.8677	170.393	-62.4424	13.6504	-30.7112	342.362	-39.5322	178.587
426251	-50.2348	7.03103	-70.2115	23.5347	-47.5406	298.451	-75.2227	219.045	-64.8254	169.828	-62.3965	14.1675	-30.7355	342.644	-39.5265	178.27
426252	-50.2159	7.41097	-70.1252	24.2068	-47.7102	298.711	-75.3787	218.306	-64.7808	169.265	-62.3488	14.6831	-30.7595	342.926	-39.5198	177.954
426253	-50.1959	7.79063	-70.0365	24.8735	-47.8794	298.972	-75.5322	217.552	-64.7339	168.704	-62.2995	15.1972	-30.783	343.209	-39.5119	177.639
426254	-50.175	8.16999	-69.9456	25.5347	-48.0482	299.235	-75.683	216.781	-64.6846	168.145	-62.2485	15.7097	-30.8062	343.491	-39.503	177.323
426255	-50.153	8.54905	-69.8525	26.1903	-48.2166	299.499	-75.8311	215.994	-64.6329	167.588	-62.1959	16.2205	-30.829	343.774	-39.493	177.007
426256	-50.1301	8.92779	-69.7572	26.8404	-48.3845	299.765	-75.9764	215.19	-64.579	167.034	-62.1416	16.7296	-30.8515	344.057	-39.4819	176.692
426257	-50.1061	9.30618	-69.6598	27.4848	-48.552	300.032	-76.1188	214.369	-64.5227	166.482	-62.0857	17.237	-30.8736	344.34	-39.4697	176.376
426258	-50.0812	9.68423	-69.5602	28.1236	-48.7191	300.301	-76.2582	213.531	-64.4642	165.932	-62.0281	17.7426	-30.8952	344.623	-39.4564	176.061
426259	-50.0552	10.0619	-69.4586	28.7566	-48.8856	300.571	-76.3945	212.676	-64.4034	165.385	-61.969	18.2464	-30.9165	344.906	-39.442	175.746
426260	-50.0283	10.4392	-69.3548	29.3839	-49.0518	300.843	-76.5276	211.803	-64.3404	164.84	-61.9083	18.7483	-30.9375	345.189	-39.4265	175.43
426261	-50.0004	10.8162	-69.2491	30.0055	-49.2174	301.117	-76.6575	210.913	-64.275	164.299	-61.8459	19.2484	-30.958	345.472	-39.41	175.116
426262	-49.9715	11.1927	-69.1413	30.6212	-49.3826	301.392	-76.784	210.006	-64.2075	163.76	-61.782	19.7465	-30.9781	345.756	-39.3924	174.801
426263	-49.9416	11.5688	-69.0316	31.2311	-49.5472	301.668	-76.9071	209.081	-64.1378	163.223	-61.7165	20.2427	-30.9979	346.039	-39.3736	174.486
426264	-49.9108	11.9444	-68.9199	31.8352	-49.7114	301.947	-77.0266	208.138	-64.0659	162.69	-61.6495	20.7368	-31.0173	346.323	-39.3539	174.172
426265	-49.8789	12.3197	-68.8063	32.4335	-49.8751	302.227	-77.1424	207.178	-63.9918	162.16	-61.5809	21.229	-31.0363	346.606	-39.333	173.858
426266	-49.8461	12.6944	-68.6909	33.0259	-50.0383	302.509	-77.2544	206.201	-63.9156	161.632	-61.5107	21.719	-31.0549	346.89	-39.3111	173.544
426267	-49.8123	13.0688	-68.5736	33.6125	-50.201	302.792	-77.3626	205.207	-63.8373	161.108	-61.4391	22.207	-31.0731	347.174	-39.288	173.231
426268	-49.7776	13.4426	-68.4544	34.1933	-50.3632	303.077	-77.4669	204.195	-63.7568	160.587	-61.3659	22.6929	-31.0909	347.458	-39.2639	172.917
426269	-49.7418	13.8159	-68.3335	34.7683	-50.5248	303.363	-77.567	203.167	-63.6743	160.068	-61.2912	23.1766	-31.1084	347.742	-39.2388	172.604
426270	-49.7051	14.1888	-68.2109	35.3375	-50.6859	303.652	-77.6631	202.121	-63.5896	159.554	-61.2151	23.6582	-31.1255	348.026	-39.2125	172.291
426271	-49.6675	14.5611	-68.0865	35.9008	-50.8465	303.942	-77.7548	201.06	-63.503	159.042	-61.1374	24.1376	-31.1421	348.31	-39.1852	171.978
426272	-49.6289	14.9329	-67.9604	36.4584	-51.0065	304.234	-77.8422	199.983	-63.4143	158.534	-61.0583	24.6147	-31.1584	348.594	-39.1568	171.666
426273	-49.5893	15.3041	-67.8327	37.0103	-51.166	304.528	-77.9252	198.891	-63.3236	158.029	-60.9778	25.0897	-31.1743	348.879	-39.1274	171.354
426274	-49.5488	15.6749	-67.7033	37.5565	-51.3248	304.823	-78.0036	197.784	-63.2309	157.528	-60.8958	25.5623	-31.1898	349.163	-39.0968	171.042
426275	-49.5073	16.045	-67.5723	38.0969	-51.4832	305.12	-78.0774	196.662	-63.1362	157.03	-60.8124	26.0327	-31.2049	349.448	-39.0653	170.731
426276	-49.4649	16.4146	-67.4397	38.6317	-51.6409	305.42	-78.1465	195.527	-63.0395	156.535	-60.7275	26.5008	-31.2196	349.732	-39.0326	170.42
426277	-49.4215	16.7836	-67.3056	39.1609	-51.7981	305.72	-78.2107	194.379	-62.941	156.044	-60.6413	26.9665	-31.234	350.017	-38.9989	170.109
426278	-49.3772	17.152	-67.1699	39.6845	-51.9547	306.023	-78.2701	193.219	-62.8405	155.556	-60.5536	27.4299	-31.2479	350.302	-38.9642	169.798
426279	-49.332	17.5198	-67.0328	40.2025	-52.1107	306.328	-78.3246	192.047	-62.7382	155.072	-60.4646	27.891	-31.2614	350.587	-38.9284	169.488
426280	-49.2858	17.8869	-66.8941	40.715	-52.266	306.635	-78.374	190.865	-62.634	154.592	-60.3743	28.3497	-31.2746	350.871	-38.8915	169.179
426281	-49.2387	18.2535	-66.7541	41.2221	-52.4208	306.943	-78.4183	189.673	-62.5279	154.115	-60.2826	28.806	-31.2873	351.156	-38.8536	168.869
426282	-49.1907	18.6194	-66.6126	41.7237	-52.5749	307.253	-78.4575	188.472	-62.42	153.642	-60.1895	29.26	-31.2997	351.441	-38.8146	168.56
426283	-49.1417	18.9847	-66.4697	42.22	-52.7284	307.566	-78.4915	187.264	-62.3103	153.173	-60.0951	29.7115	-31.3117	351.726	-38.7746	168.252
426284	-49.0918	19.3493	-66.3255	42.7109	-52.8812	307.88	-78.5202	186.049	-62.1989	152.707	-59.9994	30.1606	-31.3232	352.011	-38.7336	167.944
426285	-49.041	19.7132	-66.1799	43.1965	-53.0334	308.196	-78.5437	184.828	-62.0857	152.245	-59.9024	30.6073	-31.3344	352.296	-38.6915	167.636
426286	-48.9894	20.0765	-66.033	43.6769	-53.185	308.514	-78.5618	183.603	-61.9707	151.787	-59.8041	31.0516	-31.3452	352.582	-38.6484	167.328
426287	-48.9367	20.4391	-65.8848	44.1521	-53.3358	308.835	-78.5746	182.375	-61.854	151.332	-59.7046	31.4934	-31.3556	352.867	-38.6042	167.022
426288	-48.8832	20.801	-65.7354	44.6222	-53.486	309.157	-78.582	181.144	-61.7357	150.881	-59.6038	31.9328	-31.3656	353.152	-38.559	166.715
426289	-48.8288	21.1622	-65.5847	45.0872	-53.6355	309.481	-78.5841	179.912	-61.6156	150.434	-59.5017	32.3697	-31.3752	353.438	-38.5128	166.409
426290	-48.7735	21.5227	-65.4327	45.5472	-53.7843	309.808	-78.5808	178.68	-61.4939	149.99	-59.3984	32.8042	-31.3844	353.723	-38.4655	166.103
426291	-48.7173	21.8825	-65.2796	46.0022	-53.9324	310.136	-78.5721	177.45	-61.3706	149.55	-59.2939	33.2362	-31.3932	354.008	-38.4173	165.798
426292	-48.6602	22.2415	-65.1253	46.4522	-54.0798	310.467	-78.5581	176.222	-61.2457	149.114	-59.1882	33.6657	-31.4016	354.294	-38.368	165.494
426293	-48.6022	22.5998	-64.9699	46.8974	-54.2264	310.799	-78.5387	174.998	-61.1191	148.682	-59.0812	34.0928	-31.4096	354.579	-38.3177	165.19
426294	-48.5434	22.9574	-64.8133	47.3379	-54.3723	311.134	-78.5141	173.779	-60.991	148.253	-58.9731	34.5174	-31.4172	354.865	-38.2663	164.886
426295	-48.4836	23.3142	-64.6556	47.7735	-54.5175	311.471	-78.4841	172.565	-60.8614	147.828	-58.8638	34.9396	-31.4244	355.151	-38.214	164.583
426296	-48.423	23.6703	-64.4969	48.2045	-54.6619	311.81	-78.4489	171.359	-60.7302	147.407	-58.7534	35.3592	-31.4312	355.436	-38.1607	164.28
426297	-48.3616	24.0256	-64.337	48.6308	-54.8056	312.151	-78.4086	170.16	-60.5975	146.99	-58.6418	35.7765	-31.4376	355.722	-38.1063	163.978
426298	-48.2992	24.3801	-64.1762	49.0525	-54.9485	312.495	-78.3631	168.97	-60.4634	146.576	-58.5291	36.1912	-31.4436	356.007	-38.051	163.676
426299	-48.236	24.7339	-64.0143	49.4697	-55.0906	312.84	-78.3125	167.79	-60.3277	146.166	-58.4153	36.6035	-31.4493	356.293	-37.9946	163.375
426300	-48.172	25.0868	-63.8513	49.8825	-55.2319	313.188	-78.2569	166.621	-60.1907	145.76	-58.3003	37.0133	-31.4545	356.579	-37.9373	163.075
426301	-48.1071	25.439	-63.6874	50.2908	-55.3724	313.538	-78.1964	165.463	-60.0521	145.357	-58.1843	37.4207	-31.4593	356.865	-37.8789	162.774
426302	-48.0413	25.7903	-63.5225	50.6948	-55.5121	313.891	-78.131	164.318	-59.9122	144.958	-58.0671	37.8256	-31.4637	357.151	-37.8196	162.475
426303	-47.9748	26.1409	-63.3567	51.0945	-55.651	314.245	-78.0608	163.186	-59.7709	144.562	-57.949	38.2281	-31.4677	357.436	-37.7593	162.176
426304	-47.9073	26.4906	-63.19	51.4899	-55.789	314.602	-77.986	162.068	-59.6283	144.17	-57.8297	38.6281	-31.4714	357.722	-37.698	161.878
426305	-47.8391	26.8395	-63.0223	51.8811	-55.9262	314.961	-77.9065	160.964	-59.4843	143.782	-57.7094	39.0258	-31.4746	358.008	-37.6357	161.58
426306	-47.77	27.1877	-62.8537	52.2683	-56.0625	315.323	-77.8225	159.875	-59.3389	143.398	-57.5881	39.4209	-31.4774	358.294	-37.5725	161.283
426307	-47.7001	27.5349	-62.6842	52.6513	-56.198	315.687	-77.7341	158.802	-59.1923	143.016	-57.4657	39.8137	-31.4798	358.58	-37.5083	160.986
426308	-47.6293	27.8814	-62.5139	53.0303	-56.3326	316.053	-77.6414	157.745	-59.0443	142.639	-57.3424	40.204	-31.4818	358.866	-37.4431	160.69
426309	-47.5578	28.2269	-62.3428	53.4054	-56.4663	316.421	-77.5444	156.703	-58.8951	142.265	-57.218	40.592	-31.4835	359.151	-37.3769	160.395
426310	-47.4854	28.5717	-62.1707	53.7766	-56.5991	316.792	-77.4433	155.679	-58.7446	141.894	-57.0927	40.9775	-31.4847	359.437	-37.3098	160.1
426311	-47.4123	28.9156	-61.9979	54.1439	-56.7309	317.165	-77.3381	154.671	-58.5929	141.527	-56.9663	41.3607	-31.4855	359.723	-37.2418	159.806
426312	-47.3383	29.2586	-61.8243	54.5074	-56.8619	317.541	-77.229	153.681	-58.44	141.164	-56.8391	41.7415	-31.4859	0.00908575	-37.1727	159.512
426313	-47.2635	29.6008	-61.6499	54.8672	-56.9919	317.919	-77.1161	152.708	-58.2858	140.804	-56.7108	42.1199	-31.4859	0.294997	-37.1028	159.219
426314	-47.188	29.9422	-61.4748	55.2233	-57.121	318.299	-76.9994	151.752	-58.1305	140.447	-56.5817	42.496	-31.4856	0.580907	-37.0319	158.927
426315	-47.1116	30.2826	-61.2988	55.5757	-57.2491	318.682	-76.8791	150.813	-57.974	140.094	-56.4516	42.8697	-31.4848	0.866814	-36.96	158.635
426316	-47.0345	30.6222	-61.1222	55.9245	-57.3762	319.067	-76.7553	149.892	-57.8164	139.744	-56.3206	43.2411	-31.4836	1.15272	-36.8872	158.344
426317	-46.9566	30.9609	-60.9448	56.2699	-57.5024	319.455	-76.628	148.989	-57.6576	139.397	-56.1886	43.6101	-31.482	1.43861	-36.8135	158.054
426318	-46.878	31.2987	-60.7667	56.6117	-57.6275	319.845	-76.4973	148.103	-57.4977	139.054	-56.0558	43.9769	-31.4801	1.7245	-36.7389	157.764
426319	-46.7985	31.6357	-60.5879	56.9501	-57.7517	320.238	-76.3635	147.234	-57.3367	138.714	-55.9221	44.3414	-31.4777	2.01037	-36.6633	157.475
426320	-46.7183	31.9717	-60.4084	57.2851	-57.8748	320.633	-76.2264	146.383	-57.1746	138.377	-55.7876	44.7036	-31.4749	2.29623	-36.5868	157.186
426321	-46.6374	32.3069	-60.2282	57.6168	-57.9969	321.031	-76.0864	145.549	-57.0115	138.044	-55.6521	45.0635	-31.4717	2.58208	-36.5094	156.899
426322	-46.5556	32.6412	-60.0474	57.9452	-58.118	321.431	-75.9433	144.732	-56.8473	137.714	-55.5159	45.4211	-31.4682	2.86791	-36.431	156.612
426323	-46.4732	32.9746	-59.8659	58.2704	-58.238	321.833	-75.7974	143.932	-56.682	137.386	-55.3787	45.7766	-31.4642	3.15372	-36.3518	156.325
426324	-46.39	33.3071	-59.6838	58.5924	-58.3569	322.238	-75.6487	143.149	-56.5158	137.063	-55.2408	46.1297	-31.4598	3.43951	-36.2717	156.039
426325	-46.306	33.6386	-59.5011	58.9112	-58.4748	322.646	-75.4972	142.382	-56.3485	136.742	-55.102	46.4807	-31.455	3.72527	-36.1906	155.754
426326	-46.2213	33.9693	-59.3177	59.2269	-58.5916	323.056	-75.3432	141.631	-56.1803	136.424	-54.9624	46.8295	-31.4499	4.01102	-36.1087	155.47
426327	-46.1359	34.2991	-59.1338	59.5396	-58.7072	323.469	-75.1866	140.896	-56.011	136.109	-54.822	47.176	-31.4443	4.29673	-36.0259	155.186
426328	-46.0498	34.628	-58.9492	59.8493	-58.8217	323.884	-75.0276	140.177	-55.8409	135.798	-54.6809	47.5204	-31.4383	4.58242	-35.9421	154.903
426329	-45.9629	34.956	-58.7641	60.1561	-58.9351	324.301	-74.8662	139.474	-55.6697	135.489	-54.5389	47.8627	-31.432	4.86807	-35.8576	154.621
426330	-45.8754	35.283	-58.5784	60.4599	-59.0474	324.721	-74.7024	138.786	-55.4977	135.184	-54.3962	48.2028	-31.4252	5.15369	-35.7721	154.339
426331	-45.7871	35.6091	-58.3922	60.7609	-59.1585	325.144	-74.5365	138.112	-55.3247	134.881	-54.2528	48.5408	-31.418	5.43928	-35.6857	154.059
426332	-45.6981	35.9344	-58.2054	61.059	-59.2684	325.569	-74.3683	137.453	-55.1508	134.582	-54.1085	48.8766	-31.4105	5.72483	-35.5985	153.778
426333	-45.6084	36.2587	-58.0181	61.3544	-59.3772	325.997	-74.1981	136.809	-54.976	134.285	-53.9636	49.2104	-31.4025	6.01034	-35.5104	153.499
426334	-45.518	36.5821	-57.8302	61.647	-59.4847	326.427	-74.0259	136.179	-54.8003	133.991	-53.8179	49.5421	-31.3941	6.29581	-35.4215	153.22
426335	-45.4269	36.9046	-57.6419	61.9369	-59.591	326.86	-73.8517	135.562	-54.6238	133.7	-53.6715	49.8717	-31.3854	6.58124	-35.3316	152.942
426336	-45.3352	37.2261	-57.453	62.2242	-59.6962	327.296	-73.6756	134.959	-54.4464	133.411	-53.5244	50.1993	-31.3762	6.86662	-35.241	152.665
426337	-45.2428	37.5468	-57.2636	62.5088	-59.8	327.733	-73.4976	134.369	-54.2681	133.126	-53.3766	50.5248	-31.3667	7.15196	-35.1495	152.389
426338	-45.1496	37.8665	-57.0738	62.7908	-59.9026	328.174	-73.3179	133.792	-54.0891	132.843	-53.228	50.8484	-31.3568	7.43725	-35.0571	152.113
426339	-45.0558	38.1853	-56.8834	63.0704	-60.004	328.617	-73.1365	133.228	-53.9092	132.563	-53.0788	51.1699	-31.3464	7.72248	-34.9639	151.838
426340	-44.9614	38.5032	-56.6926	63.3474	-60.1041	329.062	-72.9534	132.676	-53.7285	132.286	-52.929	51.4894	-31.3357	8.00767	-34.8699	151.563
426341	-44.8663	38.8202	-56.5014	63.6219	-60.2029	329.51	-72.7687	132.136	-53.5471	132.012	-52.7784	51.807	-31.3245	8.2928	-34.775	151.29
426342	-44.7705	39.1362	-56.3096	63.8941	-60.3004	329.961	-72.5824	131.607	-53.3648	131.74	-52.6272	52.1226	-31.313	8.57788	-34.6793	151.017
426343	-44.6741	39.4514	-56.1174	64.1638	-60.3965	330.413	-72.3946	131.091	-53.1818	131.47	-52.4754	52.4362	-31.3011	8.8629	-34.5828	150.745
426344	-44.577	39.7656	-55.9248	64.4312	-60.4914	330.869	-72.2054	130.585	-52.998	131.204	-52.3229	52.748	-31.2888	9.14785	-34.4854	150.474
426345	-44.4793	40.0789	-55.7318	64.6963	-60.5849	331.327	-72.0147	130.091	-52.8135	130.939	-52.1698	53.0578	-31.2761	9.43275	-34.3873	150.203
426346	-44.3809	40.3913	-55.5383	64.9591	-60.677	331.787	-71.8227	129.607	-52.6282	130.678	-52.016	53.3658	-31.263	9.71758	-34.2883	149.933
426347	-44.2819	40.7027	-55.3445	65.2196	-60.7678	332.25	-71.6293	129.133	-52.4423	130.419	-51.8617	53.6719	-31.2495	10.0023	-34.1886	149.664
426348	-44.1823	41.0133	-55.1502	65.478	-60.8572	332.715	-71.4347	128.67	-52.2556	130.162	-51.7067	53.9761	-31.2356	10.2871	-34.088	149.396
426349	-44.0821	41.3229	-54.9555	65.7341	-60.9452	333.183	-71.2388	128.216	-52.0682	129.908	-51.5512	54.2785	-31.2213	10.5717	-33.9866	149.128
426350	-43.9812	41.6316	-54.7604	65.9882	-61.0318	333.652	-71.0416	127.772	-51.8801	129.656	-51.395	54.5791	-31.2067	10.8562	-33.8845	148.862
426351	-43.8797	41.9394	-54.5649	66.24	-61.1169	334.125	-70.8434	127.338	-51.6913	129.407	-51.2383	54.8778	-31.1916	11.1407	-33.7815	148.595
426352	-43.7776	42.2463	-54.3691	66.4899	-61.2007	334.599	-70.6439	126.913	-51.5019	129.16	-51.081	55.1748	-31.1762	11.4251	-33.6778	148.33
426353	-43.675	42.5522	-54.1729	66.7376	-61.2829	335.077	-70.4434	126.496	-51.3118	128.915	-50.9231	55.47	-31.1603	11.7095	-33.5733	148.066
426354	-43.5717	42.8573	-53.9763	66.9834	-61.3638	335.556	-70.2418	126.089	-51.121	128.673	-50.7647	55.7634	-31.1441	11.9937	-33.468	147.802
426355	-43.4678	43.1614	-53.7794	67.2271	-61.4431	336.038	-70.0392	125.689	-50.9297	128.432	-50.6057	56.0551	-31.1275	12.2779	-33.362	147.539
426356	-43.3633	43.4647	-53.5821	67.4689	-61.521	336.522	-69.8356	125.299	-50.7376	128.195	-50.4462	56.3451	-31.1105	12.562	-33.2552	147.277
426357	-43.2582	43.767	-53.3845	67.7088	-61.5973	337.008	-69.631	124.916	-50.545	127.959	-50.2861	56.6333	-31.0931	12.846	-33.1476	147.015
426358	-43.1526	44.0684	-53.1865	67.9468	-61.6722	337.496	-69.4254	124.541	-50.3517	127.726	-50.1255	56.9199	-31.0753	13.1299	-33.0393	146.755
426359	-43.0464	44.369	-52.9882	68.1829	-61.7455	337.987	-69.219	124.174	-50.1578	127.495	-49.9644	57.2048	-31.0571	13.4138	-32.9302	146.495
426360	-42.9396	44.6686	-52.7896	68.4172	-61.8173	338.48	-69.0116	123.814	-49.9634	127.266	-49.8027	57.488	-31.0386	13.6975	-32.8204	146.235
426361	-42.8323	44.9673	-52.5906	68.6496	-61.8876	338.975	-68.8034	123.462	-49.7683	127.039	-49.6406	57.7696	-31.0196	13.9812	-32.7098	145.977
426362	-42.7243	45.2651	-52.3914	68.8803	-61.9562	339.472	-68.5943	123.117	-49.5727	126.814	-49.4779	58.0495	-31.0003	14.2647	-32.5985	145.719
426363	-42.6159	45.5621	-52.1918	69.1092	-62.0234	339.971	-68.3845	122.778	-49.3764	126.591	-49.3148	58.3278	-30.9806	14.5482	-32.4865	145.463
426364	-42.5068	45.8581	-51.9919	69.3363	-62.0889	340.472	-68.1738	122.447	-49.1797	126.371	-49.1511	58.6046	-30.9605	14.8316	-32.3737	145.207
426365	-42.3973	46.1532	-51.7918	69.5618	-62.1529	340.975	-67.9624	122.121	-48.9823	126.152	-48.987	58.8797	-30.94	15.1149	-32.2602	144.951
426366	-42.2871	46.4475	-51.5913	69.7856	-62.2152	341.48	-67.7502	121.803	-48.7845	125.936	-48.8224	59.1533	-30.9192	15.3981	-32.146	144.697
426367	-42.1765	46.7409	-51.3905	70.0077	-62.2759	341.988	-67.5373	121.49	-48.5861	125.721	-48.6573	59.4253	-30.8979	15.6811	-32.0311	144.443
426368	-42.0653	47.0334	-51.1895	70.2282	-62.335	342.496	-67.3237	121.184	-48.3871	125.508	-48.4918	59.6958	-30.8763	15.9641	-31.9154	144.19
426369	-41.9536	47.325	-50.9882	70.4471	-62.3925	343.007	-67.1094	120.884	-48.1876	125.298	-48.3258	59.9648	-30.8543	16.247	-31.7991	143.938
426370	-41.8413	47.6157	-50.7866	70.6644	-62.4483	343.52	-66.8945	120.59	-47.9877	125.089	-48.1594	60.2322	-30.8319	16.5297	-31.682	143.686
426371	-41.7285	47.9056	-50.5847	70.8801	-62.5024	344.034	-66.6789	120.301	-47.7872	124.882	-47.9925	60.4982	-30.8092	16.8124	-31.5643	143.435
426372	-41.6153	48.1946	-50.3826	71.0943	-62.5549	344.55	-66.4627	120.017	-47.5862	124.677	-47.8252	60.7627	-30.786	17.0949	-31.4458	143.186
426373	-41.5015	48.4827	-50.1802	71.307	-62.6057	345.068	-66.2459	119.74	-47.3847	124.474	-47.6574	61.0257	-30.7625	17.3774	-31.3267	142.936
426374	-41.3871	48.7699	-49.9776	71.5182	-62.6548	345.588	-66.0284	119.467	-47.1827	124.273	-47.4892	61.2873	-30.7386	17.6597	-31.2069	142.688
426375	-41.2723	49.0563	-49.7747	71.7279	-62.7022	346.109	-65.8104	119.199	-46.9802	124.074	-47.3206	61.5475	-30.7143	17.9419	-31.0864	142.44
426376	-41.157	49.3419	-49.5716	71.9362	-62.7479	346.632	-65.5919	118.937	-46.7773	123.876	-47.1516	61.8062	-30.6897	18.224	-30.9652	142.194
426377	-41.0412	49.6265	-49.3682	72.1431	-62.7919	347.156	-65.3727	118.679	-46.5739	123.68	-46.9822	62.0636	-30.6647	18.506	-30.8433	141.947
426378	-40.9249	49.9103	-49.1646	72.3485	-62.8342	347.681	-65.1531	118.427	-46.37	123.486	-46.8124	62.3195	-30.6393	18.7878	-30.7208	141.702
426379	-40.8081	50.1933	-48.9608	72.5526	-62.8747	348.208	-64.9329	118.178	-46.1657	123.294	-46.6421	62.5741	-30.6135	19.0696	-30.5976	141.458
426380	-40.6909	50.4754	-48.7567	72.7553	-62.9136	348.736	-64.7123	117.935	-45.961	123.103	-46.4715	62.8273	-30.5874	19.3512	-30.4738	141.214
426381	-40.5731	50.7567	-48.5524	72.9567	-62.9506	349.266	-64.4911	117.696	-45.7558	122.914	-46.3005	63.0792	-30.5608	19.6327	-30.3493	140.971
426382	-40.4549	51.0371	-48.3479	73.1567	-62.9859	349.797	-64.2695	117.461	-45.5501	122.727	-46.1291	63.3297	-30.534	19.914	-30.2242	140.728
426383	-40.3362	51.3167	-48.1432	73.3554	-63.0194	350.329	-64.0473	117.23	-45.3441	122.541	-45.9573	63.5789	-30.5067	20.1953	-30.0984	140.487
426384	-40.2171	51.5955	-47.9383	73.5529	-63.0512	350.862	-63.8248	117.004	-45.1376	122.357	-45.7852	63.8269	-30.4791	20.4764	-29.9719	140.246
426385	-40.0975	51.8734	-47.7331	73.7491	-63.0812	351.396	-63.6018	116.781	-44.9306	122.175	-45.6127	64.0735	-30.4511	20.7574	-29.8449	140.006
426386	-39.9774	52.1505	-47.5278	73.944	-63.1094	351.932	-63.3783	116.563	-44.7233	121.994	-45.4398	64.3188	-30.4227	21.0382	-29.7171	139.767
426387	-39.8569	52.4268	-47.3222	74.1377	-63.1359	352.468	-63.1545	116.348	-44.5156	121.814	-45.2666	64.5629	-30.394	21.3189	-29.5888	139.529
426388	-39.7359	52.7023	-47.1165	74.3303	-63.1605	353.005	-62.9302	116.137	-44.3075	121.637	-45.093	64.8058	-30.3649	21.5995	-29.4598	139.291
426389	-39.6145	52.977	-46.9105	74.5216	-63.1833	353.543	-62.7055	115.93	-44.0989	121.461	-44.9191	65.0474	-30.3355	21.88	-29.3303	139.054
426390	-39.4926	53.2508	-46.7044	74.7117	-63.2044	354.081	-62.4804	115.727	-43.89	121.286	-44.7449	65.2878	-30.3056	22.1603	-29.2001	138.817
426391	-39.3703	53.5238	-46.4981	74.9007	-63.2236	354.62	-62.255	115.527	-43.6807	121.113	-44.5703	65.5269	-30.2755	22.4404	-29.0693	138.582
426392	-39.2476	53.7961	-46.2916	75.0885	-63.241	355.161	-62.0292	115.33	-43.471	120.941	-44.3953	65.7649	-30.2449	22.7205	-28.9378	138.347
426393	-39.1245	54.0675	-46.0849	75.2752	-63.2566	355.701	-61.803	115.137	-43.261	120.771	-44.2201	66.0017	-30.214	23.0004	-28.8058	138.113
426394	-39.0009	54.3381	-45.878	75.4609	-63.2704	356.242	-61.5765	114.947	-43.0505	120.602	-44.0445	66.2373	-30.1827	23.2801	-28.6732	137.88
426395	-38.8769	54.608	-45.671	75.6454	-63.2824	356.784	-61.3496	114.76	-42.8398	120.435	-43.8686	66.4718	-30.1511	23.5597	-28.54	137.647
426396	-38.7525	54.877	-45.4638	75.8288	-63.2926	357.326	-61.1224	114.576	-42.6286	120.269	-43.6924	66.7051	-30.1191	23.8392	-28.4061	137.416
426397	-38.6277	55.1453	-45.2564	76.0112	-63.3009	357.868	-60.8948	114.396	-42.4171	120.105	-43.5159	66.9373	-30.0868	24.1185	-28.2717	137.184
426398	-38.5024	55.4128	-45.0489	76.1926	-63.3074	358.41	-60.6669	114.218	-42.2052	119.942	-43.3391	67.1684	-30.0541	24.3977	-28.1367	136.954
426399	-38.3768	55.6795	-44.8412	76.3729	-63.3121	358.953	-60.4388	114.044	-41.993	119.78	-43.1619	67.3983	-30.021	24.6767	-28.0012	136.724
426400	-38.2508	55.9455	-44.6333	76.5522	-63.3149	359.496	-60.2103	113.872	-41.7805	119.62	-42.9845	67.6272	-29.9876	24.9555	-27.865	136.496
426401	-38.1243	56.2107	-44.4253	76.7305	-63.3159	0.0387901	-59.9815	113.703	-41.5676	119.461	-42.8068	67.855	-29.9538	25.2343	-27.7283	136.267
426402	-37.9975	56.4751	-44.2171	76.9078	-63.3151	0.581716	-59.7524	113.537	-41.3544	119.303	-42.6288	68.0817	-29.9197	25.5128	-27.591	136.04
426403	-37.8703	56.7387	-44.0088	77.0841	-63.3125	1.12458	-59.523	113.374	-41.1409	119.147	-42.4505	68.3073	-29.8853	25.7912	-27.4532	135.813
426404	-37.7427	57.0016	-43.8004	77.2596	-63.308	1.66732	-59.2934	113.213	-40.927	118.991	-42.272	68.5319	-29.8504	26.0695	-27.3148	135.587
426405	-37.6147	57.2638	-43.5918	77.434	-63.3017	2.20986	-59.0634	113.055	-40.7128	118.838	-42.0931	68.7555	-29.8153	26.3476	-27.1758	135.362
426406	-37.4864	57.5252	-43.383	77.6075	-63.2936	2.75215	-58.8332	112.899	-40.4983	118.685	-41.914	68.978	-29.7798	26.6255	-27.0363	135.137
426407	-37.3576	57.7859	-43.1741	77.7801	-63.2837	3.29412	-58.6028	112.746	-40.2835	118.534	-41.7346	69.1995	-29.7439	26.9033	-26.8962	134.913
426408	-37.2285	58.0458	-42.9651	77.9519	-63.2719	3.8357	-58.3721	112.595	-40.0684	118.383	-41.555	69.4201	-29.7077	27.1809	-26.7556	134.69
426409	-37.0991	58.305	-42.7559	78.1227	-63.2583	4.37684	-58.1411	112.447	-39.853	118.235	-41.3751	69.6396	-29.6711	27.4584	-26.6145	134.468
426410	-36.9693	58.5635	-42.5467	78.2926	-63.2429	4.91746	-57.9099	112.301	-39.6373	118.087	-41.1949	69.8581	-29.6342	27.7357	-26.4728	134.246
426411	-36.8391	58.8212	-42.3372	78.4617	-63.2257	5.4575	-57.6785	112.157	-39.4213	117.94	-41.0145	70.0757	-29.597	28.0128	-26.3306	134.025
426412	-36.7085	59.0782	-42.1277	78.63	-63.2067	5.99691	-57.4468	112.016	-39.205	117.795	-40.8339	70.2923	-29.5594	28.2898	-26.1878	133.805
426413	-36.5776	59.3345	-41.9181	78.7974	-63.1858	6.53562	-57.2149	111.876	-38.9884	117.651	-40.653	70.508	-29.5215	28.5666	-26.0445	133.585
426414	-36.4464	59.5901	-41.7083	78.9639	-63.1632	7.07356	-56.9828	111.739	-38.7715	117.508	-40.4718	70.7227	-29.4832	28.8433	-25.9007	133.366
426415	-36.3148	59.845	-41.4984	79.1297	-63.1388	7.61069	-56.7504	111.604	-38.5544	117.366	-40.2905	70.9365	-29.4446	29.1197	-25.7564	133.148
426416	-36.1829	60.0992	-41.2883	79.2947	-63.1125	8.14693	-56.5179	111.471	-38.337	117.225	-40.1088	71.1494	-29.4057	29.396	-25.6116	132.93
426417	-36.0506	60.3527	-41.0782	79.4588	-63.0845	8.68222	-56.2851	111.34	-38.1193	117.086	-39.927	71.3614	-29.3664	29.6722	-25.4663	132.713
426418	-35.918	60.6055	-40.868	79.6222	-63.0547	9.21652	-56.0521	111.211	-37.9013	116.947	-39.7449	71.5725	-29.3268	29.9481	-25.3204	132.497
426419	-35.7851	60.8576	-40.6576	79.7849	-63.0232	9.74975	-55.8189	111.084	-37.683	116.81	-39.5626	71.7827	-29.2868	30.2239	-25.1741	132.282
426420	-35.6519	61.109	-40.4471	79.9467	-62.9898	10.2819	-55.5856	110.959	-37.4645	116.673	-39.3801	71.9921	-29.2465	30.4996	-25.0272	132.067
426421	-35.5183	61.3598	-40.2366	80.1079	-62.9547	10.8128	-55.352	110.836	-37.2458	116.538	-39.1974	72.2005	-29.2059	30.775	-24.8799	131.852
426422	-35.3844	61.6099	-40.0259	80.2683	-62.9179	11.3425	-55.1182	110.715	-37.0268	116.404	-39.0144	72.4082	-29.165	31.0503	-24.732	131.639
426423	-35.2502	61.8593	-39.8151	80.428	-62.8793	11.871	-54.8843	110.595	-36.8075	116.27	-38.8313	72.6149	-29.1237	31.3254	-24.5837	131.426
426424	-35.1156	62.108	-39.6042	80.5869	-62.839	12.3981	-54.6502	110.478	-36.588	116.138	-38.6479	72.8209	-29.0821	31.6003	-24.4349	131.214
426425	-34.9808	62.3561	-39.3933	80.7452	-62.7969	12.9238	-54.4158	110.362	-36.3682	116.007	-38.4644	73.026	-29.0401	31.8751	-24.2856	131.002
426426	-34.8457	62.6035	-39.1822	80.9028	-62.7531	13.4481	-54.1814	110.247	-36.1482	115.877	-38.2806	73.2303	-28.9979	32.1496	-24.1358	130.792
426427	-34.7102	62.8502	-38.971	81.0597	-62.7076	13.9708	-53.9467	110.135	-35.9279	115.748	-38.0966	73.4338	-28.9553	32.424	-23.9856	130.581
426428	-34.5745	63.0963	-38.7598	81.2159	-62.6604	14.4921	-53.7119	110.023	-35.7075	115.62	-37.9125	73.6364	-28.9124	32.6982	-23.8348	130.372
426429	-34.4384	63.3418	-38.5484	81.3714	-62.6115	15.0117	-53.4769	109.914	-35.4867	115.492	-37.7281	73.8384	-28.8691	32.9723	-23.6837	130.163
426430	-34.3021	63.5866	-38.337	81.5264	-62.5609	15.5297	-53.2418	109.806	-35.2658	115.366	-37.5436	74.0395	-28.8256	33.2461	-23.532	129.954
426431	-34.1655	63.8308	-38.1255	81.6806	-62.5086	16.0461	-53.0065	109.7	-35.0446	115.241	-37.3588	74.2399	-28.7817	33.5198	-23.3799	129.747
426432	-34.0286	64.0744	-37.9139	81.8343	-62.4546	16.5607	-52.771	109.595	-34.8232	115.116	-37.1739	74.4394	-28.7375	33.7933	-23.2273	129.54
426433	-33.8914	64.3173	-37.7022	81.9873	-62.399	17.0735	-52.5354	109.492	-34.6015	114.993	-36.9888	74.6383	-28.693	34.0666	-23.0743	129.333
426434	-33.7539	64.5596	-37.4905	82.1397	-62.3417	17.5845	-52.2997	109.39	-34.3797	114.87	-36.8036	74.8364	-28.6482	34.3397	-22.9208	129.128
426435	-33.6161	64.8013	-37.2786	82.2915	-62.2829	18.0937	-52.0638	109.29	-34.1576	114.749	-36.6181	75.0338	-28.603	34.6126	-22.7669	128.923
426436	-33.4781	65.0424	-37.0667	82.4427	-62.2223	18.601	-51.8277	109.191	-33.9353	114.628	-36.4325	75.2304	-28.5576	34.8854	-22.6125	128.718
426437	-33.3398	65.2829	-36.8547	82.5933	-62.1602	19.1063	-51.5916	109.094	-33.7128	114.508	-36.2468	75.4264	-28.5118	35.1579	-22.4577	128.514
426438	-33.2013	65.5228	-36.6427	82.7434	-62.0964	19.6097	-51.3552	108.998	-33.4901	114.389	-36.0608	75.6216	-28.4657	35.4303	-22.3025	128.311
426439	-33.0624	65.7621	-36.4305	82.8928	-62.0311	20.1111	-51.1188	108.903	-33.2671	114.271	-35.8747	75.8161	-28.4193	35.7025	-22.1468	128.108
426440	-32.9233	66.0007	-36.2184	83.0417	-61.9642	20.6104	-50.8822	108.809	-33.044	114.154	-35.6885	76.01	-28.3726	35.9745	-21.9907	127.906
426441	-32.784	66.2388	-36.0061	83.1901	-61.8957	21.1077	-50.6455	108.717	-32.8207	114.037	-35.502	76.2031	-28.3256	36.2463	-21.8341	127.705
426442	-32.6444	66.4763	-35.7938	83.3379	-61.8256	21.6028	-50.4086	108.626	-32.5971	113.922	-35.3155	76.3956	-28.2783	36.5179	-21.6772	127.504
426443	-32.5045	66.7133	-35.5814	83.4852	-61.754	22.0959	-50.1717	108.537	-32.3734	113.807	-35.1287	76.5874	-28.2307	36.7893	-21.5198	127.304
426444	-32.3644	66.9496	-35.3689	83.632	-61.6809	22.5867	-49.9346	108.449	-32.1495	113.693	-34.9419	76.7786	-28.1827	37.0606	-21.362	127.104
426445	-32.2241	67.1854	-35.1564	83.7782	-61.6062	23.0754	-49.6974	108.362	-31.9253	113.58	-34.7548	76.9691	-28.1345	37.3316	-21.2038	126.905
426446	-32.0835	67.4206	-34.9438	83.9239	-61.53	23.5618	-49.46	108.276	-31.701	113.468	-34.5677	77.159	-28.086	37.6025	-21.0451	126.707
426447	-31.9427	67.6553	-34.7312	84.0692	-61.4524	24.046	-49.2226	108.191	-31.4765	113.356	-34.3804	77.3482	-28.0372	37.8731	-20.8861	126.509
426448	-31.8016	67.8894	-34.5185	84.2139	-61.3732	24.5279	-48.985	108.107	-31.2518	113.246	-34.1929	77.5368	-27.988	38.1436	-20.7267	126.312
426449	-31.6603	68.1229	-34.3057	84.3581	-61.2926	25.0076	-48.7473	108.025	-31.0269	113.136	-34.0053	77.7248	-27.9386	38.4139	-20.5668	126.115
426450	-31.5187	68.3559	-34.093	84.5019	-61.2105	25.4849	-48.5096	107.944	-30.8019	113.026	-33.8176	77.9122	-27.8889	38.684	-20.4066	125.919
426451	-31.377	68.5884	-33.8801	84.6452	-61.1269	25.9598	-48.2717	107.863	-30.5766	112.918	-33.6298	78.099	-27.8389	38.9539	-20.2459	125.723
426452	-31.235	68.8203	-33.6672	84.788	-61.0419	26.4324	-48.0337	107.784	-30.3512	112.811	-33.4418	78.2852	-27.7885	39.2236	-20.0849	125.528
426453	-31.0927	69.0516	-33.4543	84.9304	-60.9555	26.9027	-47.7956	107.706	-30.1256	112.704	-33.2537	78.4708	-27.7379	39.493	-19.9235	125.334
426454	-30.9503	69.2825	-33.2413	85.0723	-60.8677	27.3705	-47.5574	107.629	-29.8998	112.597	-33.0655	78.6558	-27.687	39.7623	-19.7616	125.14
426455	-30.8077	69.5128	-33.0282	85.2138	-60.7785	27.8359	-47.3191	107.553	-29.6738	112.492	-32.8771	78.8402	-27.6359	40.0315	-19.5995	124.947
426456	-30.6648	69.7426	-32.8151	85.3548	-60.6879	28.2989	-47.0806	107.478	-29.4477	112.388	-32.6886	79.0241	-27.5844	40.3004	-19.4369	124.754
426457	-30.5217	69.9718	-32.602	85.4954	-60.596	28.7595	-46.8421	107.404	-29.2214	112.284	-32.5001	79.2074	-27.5326	40.5691	-19.2739	124.562
426458	-30.3784	70.2006	-32.3888	85.6356	-60.5027	29.2176	-46.6036	107.332	-28.995	112.18	-32.3113	79.3902	-27.4806	40.8376	-19.1106	124.37
426459	-30.2349	70.4288	-32.1756	85.7753	-60.408	29.6732	-46.3649	107.26	-28.7683	112.078	-32.1225	79.5724	-27.4282	41.1059	-18.9469	124.179
426460	-30.0912	70.6566	-31.9624	85.9147	-60.312	30.1264	-46.1261	107.189	-28.5416	111.976	-31.9336	79.7541	-27.3756	41.374	-18.7828	123.989
426461	-29.9473	70.8838	-31.7491	86.0537	-60.2147	30.5771	-45.8872	107.119	-28.3146	111.875	-31.7446	79.9353	-27.3227	41.642	-18.6184	123.799
426462	-29.8032	71.1106	-31.5358	86.1922	-60.1161	31.0252	-45.6482	107.049	-28.0875	111.774	-31.5554	80.1159	-27.2696	41.9097	-18.4535	123.609
426463	-29.6589	71.3368	-31.3224	86.3304	-60.0162	31.4709	-45.4092	106.981	-27.8602	111.674	-31.3662	80.296	-27.2161	42.1772	-18.2884	123.421
426464	-29.5145	71.5626	-31.109	86.4682	-59.915	31.9141	-45.1701	106.914	-27.6328	111.575	-31.1768	80.4757	-27.1624	42.4445	-18.1228	123.232
426465	-29.3698	71.7879	-30.8956	86.6056	-59.8125	32.3547	-44.9308	106.848	-27.4052	111.477	-30.9874	80.6548	-27.1084	42.7117	-17.957	123.044
426466	-29.2249	72.0127	-30.6822	86.7426	-59.7088	32.7929	-44.6915	106.782	-27.1775	111.379	-30.7978	80.8334	-27.0541	42.9786	-17.7907	122.857
426467	-29.0799	72.237	-30.4687	86.8793	-59.6039	33.2285	-44.4522	106.717	-26.9496	111.282	-30.6082	81.0115	-26.9995	43.2453	-17.6242	122.67
426468	-28.9346	72.4608	-30.2552	87.0156	-59.4977	33.6616	-44.2127	106.654	-26.7216	111.185	-30.4185	81.1891	-26.9447	43.5118	-17.4572	122.484
426469	-28.7892	72.6842	-30.0417	87.1516	-59.3904	34.0921	-43.9731	106.591	-26.4934	111.089	-30.2286	81.3663	-26.8896	43.7782	-17.2899	122.298
426470	-28.6436	72.9072	-29.8281	87.2872	-59.2818	34.5202	-43.7335	106.528	-26.2651	110.994	-30.0387	81.543	-26.8343	44.0443	-17.1223	122.113
426471	-28.4979	73.1296	-29.6145	87.4224	-59.172	34.9457	-43.4938	106.467	-26.0366	110.899	-29.8487	81.7192	-26.7786	44.3102	-16.9544	121.928
426472	-28.3519	73.3516	-29.4009	87.5574	-59.0611	35.3686	-43.2541	106.407	-25.808	110.805	-29.6586	81.895	-26.7227	44.5759	-16.7861	121.744
426473	-28.2058	73.5732	-29.1873	87.692	-58.949	35.789	-43.0142	106.347	-25.5792	110.712	-29.4685	82.0703	-26.6666	44.8415	-16.6174	121.56
426474	-28.0596	73.7943	-28.9736	87.8263	-58.8358	36.2069	-42.7743	106.288	-25.3503	110.619	-29.2782	82.2452	-26.6102	45.1068	-16.4485	121.377
426475	-27.9131	74.015	-28.76	87.9603	-58.7214	36.6223	-42.5343	106.23	-25.1213	110.527	-29.0879	82.4196	-26.5535	45.3719	-16.2792	121.194
426476	-27.7665	74.2353	-28.5463	88.0939	-58.606	37.0352	-42.2942	106.172	-24.8921	110.435	-28.8975	82.5936	-26.4965	45.6368	-16.1096	121.011
426477	-27.6198	74.4551	-28.3326	88.2273	-58.4894	37.4455	-42.0541	106.116	-24.6628	110.344	-28.707	82.7672	-26.4393	45.9016	-15.9396	120.83
426478	-27.4729	74.6745	-28.1189	88.3603	-58.3717	37.8534	-41.8139	106.06	-24.4334	110.254	-28.5164	82.9403	-26.3818	46.1661	-15.7693	120.648
426479	-27.3258	74.8934	-27.9052	88.4931	-58.2529	38.2587	-41.5737	106.004	-24.2038	110.164	-28.3258	83.1131	-26.3241	46.4304	-15.5988	120.468
426480	-27.1786	75.1119	-27.6914	88.6256	-58.1331	38.6615	-41.3333	105.95	-23.9741	110.074	-28.1351	83.2854	-26.2661	46.6945	-15.4279	120.287
426481	-27.0312	75.3301	-27.4777	88.7578	-58.0122	39.0619	-41.0929	105.896	-23.7442	109.986	-27.9444	83.4574	-26.2079	46.9584	-15.2567	120.107
426482	-26.8837	75.5478	-27.2639	88.8897	-57.8903	39.4597	-40.8525	105.843	-23.5143	109.897	-27.7535	83.6289	-26.1494	47.2221	-15.0851	119.928
426483	-26.736	75.7651	-27.0501	89.0213	-57.7673	39.8551	-40.612	105.791	-23.2842	109.81	-27.5626	83.8	-26.0907	47.4856	-14.9133	119.749
426484	-26.5882	75.982	-26.8363	89.1527	-57.6433	40.248	-40.3714	105.739	-23.054	109.722	-27.3717	83.9708	-26.0317	47.7489	-14.7412	119.57
426485	-26.4403	76.1985	-26.6226	89.2838	-57.5183	40.6384	-40.1307	105.688	-22.8236	109.636	-27.1807	84.1411	-25.9725	48.012	-14.5687	119.392
426486	-26.2922	76.4146	-26.4088	89.4146	-57.3923	41.0264	-39.8901	105.638	-22.5932	109.55	-26.9896	84.3111	-25.913	48.2749	-14.396	119.215
426487	-26.144	76.6303	-26.195	89.5452	-57.2653	41.4119	-39.6493	105.588	-22.3626	109.464	-26.7985	84.4808	-25.8533	48.5376	-14.223	119.037
426488	-25.9956	76.8456	-25.9812	89.6755	-57.1374	41.795	-39.4085	105.539	-22.1318	109.379	-26.6073	84.65	-25.7933	48.8001	-14.0496	118.861
426489	-25.8471	77.0606	-25.7674	89.8056	-57.0085	42.1757	-39.1676	105.49	-21.901	109.295	-26.416	84.8189	-25.7331	49.0624	-13.876	118.684
426490	-25.6985	77.2751	-25.5535	89.9355	-56.8786	42.554	-38.9267	105.443	-21.6701	109.211	-26.2248	84.9875	-25.6727	49.3245	-13.7021	118.508
426491	-25.5498	77.4893	-25.3397	90.0651	-56.7478	42.9299	-38.6857	105.396	-21.439	109.127	-26.0334	85.1557	-25.612	49.5864	-13.5279	118.333
426492	-25.401	77.7031	-25.1259	90.1945	-56.6161	43.3034	-38.4447	105.349	-21.2078	109.044	-25.842	85.3236	-25.5511	49.8481	-13.3534	118.158
426493	-25.252	77.9166	-24.9121	90.3237	-56.4835	43.6745	-38.2036	105.303	-20.9765	108.962	-25.6506	85.4911	-25.4899	50.1096	-13.1786	117.983
426494	-25.1029	78.1297	-24.6983	90.4527	-56.3499	44.0432	-37.9624	105.258	-20.7451	108.88	-25.4591	85.6583	-25.4285	50.3709	-13.0035	117.809
426495	-24.9537	78.3424	-24.4845	90.5814	-56.2155	44.4096	-37.7212	105.213	-20.5136	108.799	-25.2676	85.8252	-25.3669	50.632	-12.8282	117.635
426496	-24.8043	78.5548	-24.2707	90.71	-56.0802	44.7737	-37.48	105.169	-20.2819	108.718	-25.076	85.9917	-25.305	50.8929	-12.6525	117.462
426497	-24.6549	78.7668	-24.0569	90.8383	-55.944	45.1354	-37.2387	105.125	-20.0502	108.637	-24.8845	86.158	-25.2429	51.1536	-12.4766	117.289
426498	-24.5053	78.9785	-23.8431	90.9664	-55.807	45.4949	-36.9973	105.082	-19.8183	108.557	-24.6928	86.3239	-25.1806	51.4141	-12.3005	117.117
426499	-24.3557	79.1898	-23.6294	91.0944	-55.6692	45.852	-36.7559	105.04	-19.5864	108.478	-24.5011	86.4895	-25.1181	51.6743	-12.124	116.945
426500	-24.2059	79.4008	-23.4156	91.2221	-55.5304	46.2069	-36.5145	104.998	-19.3543	108.398	-24.3094	86.6548	-25.0553	51.9344	-11.9473	116.773
426501	-24.0561	79.6114	-23.2019	91.3497	-55.3909	46.5595	-36.273	104.957	-19.1221	108.32	-24.1177	86.8199	-24.9923	52.1943	-11.7704	116.602
426502	-23.9061	79.8217	-22.9881	91.477	-55.2506	46.9098	-36.0315	104.916	-18.8898	108.242	-23.9259	86.9846	-24.9291	52.454	-11.5931	116.431
426503	-23.756	80.0317	-22.7744	91.6042	-55.1094	47.2579	-35.7899	104.875	-18.6575	108.164	-23.7341	87.149	-24.8656	52.7135	-11.4156	116.26
426504	-23.6059	80.2414	-22.5606	91.7313	-54.9675	47.6038	-35.5483	104.836	-18.425	108.087	-23.5423	87.3132	-24.802	52.9728	-11.2378	116.09
426505	-23.4556	80.4507	-22.3469	91.8581	-54.8247	47.9475	-35.3066	104.796	-18.1924	108.01	-23.3504	87.4771	-24.7381	53.2319	-11.0598	115.921
426506	-23.3053	80.6597	-22.1333	91.9848	-54.6812	48.289	-35.0649	104.758	-17.9597	107.933	-23.1586	87.6407	-24.674	53.4908	-10.8815	115.751
426507	-23.1548	80.8684	-21.9196	92.1113	-54.5369	48.6284	-34.8232	104.72	-17.7269	107.858	-22.9667	87.8041	-24.6097	53.7495	-10.703	115.582
426508	-23.0043	81.0768	-21.7059	92.2377	-54.3919	48.9655	-34.5814	104.682	-17.494	107.782	-22.7748	87.9672	-24.5452	54.008	-10.5242	115.414
426509	-22.8537	81.2849	-21.4923	92.3639	-54.2462	49.3006	-34.3396	104.645	-17.261	107.707	-22.5828	88.13	-24.4805	54.2663	-10.3452	115.246
426510	-22.703	81.4927	-21.2787	92.49	-54.0997	49.6335	-34.0977	104.608	-17.028	107.632	-22.3909	88.2926	-24.4155	54.5244	-10.1659	115.078
426511	-22.5522	81.7002	-21.0651	92.6159	-53.9524	49.9643	-33.8558	104.572	-16.7948	107.558	-22.1989	88.4549	-24.3503	54.7823	-9.98639	114.91
426512	-22.4013	81.9074	-20.8515	92.7417	-53.8045	50.293	-33.6138	104.536	-16.5615	107.484	-22.0069	88.617	-24.285	55.04	-9.80662	114.743
426513	-22.2504	82.1143	-20.638	92.8674	-53.6559	50.6196	-33.3718	104.501	-16.3281	107.411	-21.8149	88.7789	-24.2194	55.2975	-9.62661	114.576
426514	-22.0994	82.3209	-20.4244	92.9929	-53.5065	50.9442	-33.1298	104.466	-16.0947	107.338	-21.6229	88.9405	-24.1536	55.5548	-9.44637	114.41
426515	-21.9483	82.5273	-20.2109	93.1183	-53.3565	51.2667	-32.8877	104.432	-15.8611	107.265	-21.4309	89.1019	-24.0877	55.8119	-9.26588	114.244
426516	-21.7971	82.7333	-19.9974	93.2436	-53.2058	51.5872	-32.6456	104.398	-15.6275	107.193	-21.2388	89.2631	-24.0215	56.0688	-9.08516	114.078
426517	-21.6459	82.9391	-19.784	93.3688	-53.0544	51.9057	-32.4035	104.365	-15.3937	107.121	-21.0468	89.424	-23.9551	56.3256	-8.90421	113.913
426518	-21.4946	83.1446	-19.5706	93.4938	-52.9024	52.2222	-32.1613	104.332	-15.1599	107.05	-20.8548	89.5848	-23.8885	56.5821	-8.72303	113.748
426519	-21.3432	83.3499	-19.3572	93.6187	-52.7497	52.5368	-31.9191	104.3	-14.926	106.979	-20.6627	89.7453	-23.8217	56.8385	-8.54162	113.583
426520	-21.1918	83.5548	-19.1438	93.7436	-52.5964	52.8493	-31.6769	104.268	-14.692	106.908	-20.4707	89.9056	-23.7548	57.0946	-8.35998	113.419
426521	-21.0403	83.7595	-18.9305	93.8683	-52.4424	53.16	-31.4346	104.236	-14.4579	106.838	-20.2786	90.0657	-23.6876	57.3506	-8.17811	113.255
426522	-20.8888	83.964	-18.7172	93.9929	-52.2878	53.4687	-31.1923	104.205	-14.2237	106.768	-20.0866	90.2257	-23.6202	57.6063	-7.99602	113.091
426523	-20.7372	84.1682	-18.5039	94.1174	-52.1326	53.7755	-30.9499	104.174	-13.9895	106.699	-19.8945	90.3854	-23.5527	57.8619	-7.81372	112.928
426524	-20.5855	84.3721	-18.2906	94.2419	-51.9768	54.0804	-30.7076	104.144	-13.7551	106.63	-19.7025	90.5449	-23.4849	58.1173	-7.63119	112.765
426525	-20.4338	84.5758	-18.0774	94.3662	-51.8203	54.3834	-30.4652	104.114	-13.5207	106.561	-19.5104	90.7043	-23.417	58.3725	-7.44844	112.602
426526	-20.282	84.7793	-17.8643	94.4905	-51.6633	54.6846	-30.2227	104.085	-13.2862	106.493	-19.3184	90.8634	-23.3489	58.6275	-7.26548	112.44
426527	-20.1302	84.9825	-17.6511	94.6146	-51.5057	54.984	-29.9802	104.056	-13.0516	106.425	-19.1264	91.0224	-23.2806	58.8823	-7.0823	112.278
426528	-19.9784	85.1854	-17.438	94.7387	-51.3476	55.2815	-29.7377	104.027	-12.8169	106.357	-18.9344	91.1813	-23.2121	59.1369	-6.89892	112.116
426529	-19.8265	85.3882	-17.225	94.8628	-51.1888	55.5772	-29.4952	103.999	-12.5822	106.29	-18.7424	91.3399	-23.1434	59.3913	-6.71532	111.954
426530	-19.6745	85.5907	-17.012	94.9867	-51.0295	55.8711	-29.2526	103.972	-12.3473	106.223	-18.5504	91.4984	-23.0745	59.6456	-6.53152	111.793
426531	-19.5225	85.793	-16.799	95.1106	-50.8697	56.1633	-29.0101	103.944	-12.1124	106.157	-18.3584	91.6567	-23.0055	59.8996	-6.3475	111.632
426532	-19.3705	85.995	-16.5861	95.2345	-50.7092	56.4537	-28.7675	103.917	-11.8774	106.091	-18.1664	91.8149	-22.9363	60.1535	-6.16329	111.472
426533	-19.2184	86.1968	-16.3732	95.3582	-50.5483	56.7423	-28.5248	103.891	-11.6423	106.025	-17.9745	91.9729	-22.8669	60.4072	-5.97887	111.311
426534	-19.0663	86.3984	-16.1603	95.482	-50.3868	57.0292	-28.2821	103.864	-11.4072	105.959	-17.7826	92.1308	-22.7974	60.6606	-5.79425	111.151
426535	-18.9142	86.5999	-15.9475	95.6056	-50.2248	57.3145	-28.0394	103.839	-11.172	105.894	-17.5907	92.2886	-22.7276	60.9139	-5.60944	110.992
426536	-18.762	86.801	-15.7347	95.7292	-50.0623	57.598	-27.7967	103.813	-10.9367	105.829	-17.3988	92.4462	-22.6577	61.1671	-5.42442	110.832
426537	-18.6098	87.002	-15.522	95.8528	-49.8993	57.8799	-27.554	103.788	-10.7013	105.765	-17.2069	92.6036	-22.5876	61.42	-5.23921	110.673
426538	-18.4576	87.2028	-15.3094	95.9764	-49.7357	58.1601	-27.3112	103.764	-10.4658	105.701	-17.0151	92.7609	-22.5174	61.6728	-5.0538	110.514
426539	-18.3053	87.4034	-15.0967	96.0999	-49.5717	58.4386	-27.0684	103.739	-10.2303	105.637	-16.8233	92.9181	-22.447	61.9253	-4.86821	110.356
426540	-18.1531	87.6038	-14.8842	96.2233	-49.4072	58.7156	-26.8256	103.715	-9.9947	105.573	-16.6315	93.0752	-22.3764	62.1777	-4.68242	110.197
426541	-18.0008	87.804	-14.6716	96.3468	-49.2422	58.9909	-26.5827	103.692	-9.75903	105.51	-16.4397	93.2322	-22.3056	62.4299	-4.49645	110.039
426542	-17.8484	88.004	-14.4592	96.4702	-49.0767	59.2647	-26.3398	103.669	-9.52329	105.447	-16.248	93.389	-22.2347	62.6819	-4.31029	109.882
426543	-17.6961	88.2038	-14.2468	96.5936	-48.9107	59.5368	-26.0969	103.646	-9.28748	105.385	-16.0563	93.5457	-22.1636	62.9338	-4.12394	109.724
426544	-17.5437	88.4034	-14.0344	96.7169	-48.7443	59.8074	-25.854	103.623	-9.0516	105.323	-15.8646	93.7024	-22.0924	63.1854	-3.93741	109.567
426545	-17.3914	88.6028	-13.8221	96.8403	-48.5774	60.0765	-25.6111	103.601	-8.81564	105.261	-15.673	93.8589	-22.021	63.4369	-3.7507	109.41
426546	-17.239	88.8021	-13.6098	96.9636	-48.4101	60.344	-25.3681	103.579	-8.57962	105.199	-15.4814	94.0153	-21.9494	63.6882	-3.56381	109.253
426547	-17.0866	89.0012	-13.3976	97.087	-48.2423	60.61	-25.1251	103.558	-8.34353	105.138	-15.2898	94.1716	-21.8777	63.9393	-3.37674	109.096
426548	-16.9342	89.2001	-13.1855	97.2103	-48.0741	60.8745	-24.8821	103.537	-8.10737	105.077	-15.0983	94.3278	-21.8059	64.1903	-3.18949	108.94
426549	-16.7818	89.3989	-12.9734	97.3336	-47.9055	61.1376	-24.6391	103.516	-7.87115	105.016	-14.9068	94.484	-21.7339	64.441	-3.00207	108.784
426550	-16.6294	89.5975	-12.7614	97.4569	-47.7364	61.3991	-24.396	103.496	-7.63486	104.956	-14.7154	94.64	-21.6617	64.6916	-2.81448	108.628
426551	-16.477	89.7959	-12.5494	97.5803	-47.5669	61.6593	-24.153	103.476	-7.3985	104.896	-14.524	94.796	-21.5894	64.942	-2.62671	108.472
426552	-16.3245	89.9942	-12.3375	97.7036	-47.397	61.9179	-23.9099	103.456	-7.16208	104.836	-14.3326	94.9519	-21.5169	65.1923	-2.43878	108.317
426553	-16.1721	90.1923	-12.1256	97.8269	-47.2267	62.1752	-23.6668	103.437	-6.92559	104.776	-14.1413	95.1077	-21.4443	65.4424	-2.25067	108.162
426554	-16.0197	90.3903	-11.9139	97.9503	-47.056	62.431	-23.4236	103.418	-6.68903	104.717	-13.9501	95.2635	-21.3716	65.6922	-2.0624	108.007
426555	-15.8673	90.5881	-11.7021	98.0737	-46.8849	62.6855	-23.1805	103.399	-6.45242	104.658	-13.7589	95.4191	-21.2987	65.942	-1.87397	107.852
426556	-15.7149	90.7858	-11.4905	98.1971	-46.7133	62.9385	-22.9373	103.38	-6.21574	104.6	-13.5677	95.5747	-21.2256	66.1915	-1.68537	107.698
426557	-15.5625	90.9833	-11.2789	98.3205	-46.5414	63.1902	-22.6942	103.362	-5.979	104.541	-13.3766	95.7303	-21.1524	66.4409	-1.4966	107.543
426558	-15.4101	91.1807	-11.0674	98.4439	-46.3692	63.4406	-22.4509	103.345	-5.74219	104.484	-13.1855	95.8858	-21.0791	66.6901	-1.30768	107.389
426559	-15.2577	91.3779	-10.8559	98.5674	-46.1965	63.6896	-22.2077	103.327	-5.50533	104.426	-12.9945	96.0413	-21.0056	66.9391	-1.1186	107.236
426560	-15.1053	91.5751	-10.6446	98.6909	-46.0235	63.9374	-21.9645	103.31	-5.2684	104.368	-12.8035	96.1967	-20.9321	67.188	-0.929365	107.082
426561	-14.953	91.7721	-10.4332	98.8145	-45.8501	64.1837	-21.7212	103.293	-5.03141	104.311	-12.6127	96.352	-20.8583	67.4367	-0.739971	106.928
426562	-14.8006	91.9689	-10.222	98.9381	-45.6763	64.4288	-21.478	103.277	-4.79436	104.254	-12.4218	96.5073	-20.7844	67.6852	-0.550424	106.775
426563	-14.6483	92.1657	-10.0108	99.0617	-45.5022	64.6727	-21.2347	103.26	-4.55726	104.197	-12.231	96.6626	-20.7105	67.9336	-0.360725	106.622
426564	-14.496	92.3623	-9.79972	99.1854	-45.3278	64.9152	-20.9914	103.245	-4.32009	104.141	-12.0403	96.8178	-20.6363	68.1818	-0.170874	106.469
426565	-14.3437	92.5588	-9.5887	99.3091	-45.153	65.1565	-20.7481	103.229	-4.08287	104.085	-11.8497	96.9731	-20.5621	68.4298	0.0191259	106.317
426566	-14.1915	92.7552	-9.37775	99.4329	-44.9778	65.3966	-20.5047	103.214	-3.84558	104.029	-11.6591	97.1282	-20.4877	68.6777	0.209274	106.164
426567	-14.0392	92.9515	-9.16687	99.5568	-44.8023	65.6355	-20.2614	103.199	-3.60824	103.973	-11.4685	97.2834	-20.4132	68.9254	0.399568	106.012
426568	-13.887	93.1476	-8.95608	99.6807	-44.6265	65.8731	-20.018	103.184	-3.37085	103.918	-11.2781	97.4385	-20.3385	69.1729	0.590007	105.86
426569	-13.7348	93.3437	-8.74536	99.8046	-44.4504	66.1095	-19.7747	103.17	-3.13339	103.863	-11.0877	97.5936	-20.2638	69.4203	0.78059	105.708
426570	-13.5827	93.5397	-8.53472	99.9287	-44.2739	66.3448	-19.5313	103.156	-2.89588	103.808	-10.8973	97.7488	-20.1889	69.6675	0.971314	105.556
426571	-13.4306	93.7356	-8.32416	100.053	-44.0971	66.5789	-19.2878	103.142	-2.65832	103.754	-10.7071	97.9038	-20.1139	69.9146	1.16218	105.404
426572	-13.2785	93.9313	-8.11368	100.177	-43.92	66.8118	-19.0444	103.128	-2.4207	103.699	-10.5169	98.0589	-20.0388	70.1614	1.35318	105.253
426573	-13.1265	94.127	-7.90328	100.301	-43.7426	67.0436	-18.801	103.115	-2.18303	103.645	-10.3268	98.214	-19.9635	70.4082	1.54432	105.102
426574	-12.9745	94.3226	-7.69297	100.426	-43.5649	67.2742	-18.5576	103.102	-1.9453	103.591	-10.1367	98.3691	-19.8882	70.6548	1.7356	104.951
426575	-12.8225	94.5181	-7.48274	100.55	-43.3869	67.5037	-18.3141	103.089	-1.70752	103.538	-9.94679	98.5242	-19.8127	70.9012	1.92701	104.799
426576	-12.6706	94.7135	-7.27259	100.674	-43.2086	67.7322	-18.0706	103.077	-1.46968	103.484	-9.7569	98.6793	-19.7371	71.1475	2.11856	104.649
426577	-12.5187	94.9088	-7.06254	100.799	-43.03	67.9595	-17.8272	103.065	-1.23179	103.431	-9.56709	98.8344	-19.6615	71.3936	2.31023	104.498
426578	-12.3668	95.1041	-6.85257	100.924	-42.8511	68.1857	-17.5837	103.053	-0.993853	103.379	-9.37737	98.9895	-19.5857	71.6395	2.50204	104.347
426579	-12.215	95.2992	-6.64268	101.049	-42.672	68.4109	-17.3402	103.042	-0.755861	103.326	-9.18772	99.1447	-19.5098	71.8853	2.69397	104.197
426580	-12.0633	95.4943	-6.43289	101.173	-42.4926	68.635	-17.0967	103.03	-0.517818	103.273	-8.99816	99.2998	-19.4337	72.131	2.88603	104.047
426581	-11.9116	95.6894	-6.22319	101.298	-42.3128	68.858	-16.8531	103.019	-0.279724	103.221	-8.80868	99.455	-19.3576	72.3765	3.07822	103.897
426582	-11.76	95.8843	-6.01358	101.424	-42.1328	69.08	-16.6096	103.009	-0.0415786	103.169	-8.61929	99.6102	-19.2814	72.6218	3.27053	103.747
426583	-11.6084	96.0792	-5.80406	101.549	-41.9526	69.301	-16.3661	102.998	0.196616	103.118	-8.42998	99.7654	-19.2051	72.867	3.46297	103.597
426584	-11.4568	96.2741	-5.59464	101.674	-41.7721	69.521	-16.1225	102.988	0.434861	103.066	-8.24076	99.9207	-19.1286	73.112	3.65552	103.447
426585	-11.3054	96.4688	-5.38531	101.799	-41.5913	69.74	-15.8789	102.978	0.673155	103.015	-8.05164	100.076	-19.0521	73.3569	3.8482	103.297
426586	-11.154	96.6636	-5.17607	101.925	-41.4103	69.958	-15.6354	102.969	0.911498	102.964	-7.8626	100.231	-18.9755	73.6017	4.04099	103.148
426587	-11.0026	96.8582	-4.96694	102.051	-41.229	70.175	-15.3918	102.959	1.14989	102.913	-7.67366	100.387	-18.8987	73.8463	4.23391	102.999
426588	-10.8513	97.0529	-4.7579	102.176	-41.0475	70.391	-15.1482	102.95	1.38833	102.863	-7.48481	100.542	-18.8219	74.0907	4.42693	102.85
426589	-10.7	97.2474	-4.54896	102.302	-40.8657	70.6061	-14.9046	102.941	1.62682	102.812	-7.29605	100.698	-18.745	74.3351	4.62007	102.7
426590	-10.5489	97.442	-4.34012	102.428	-40.6837	70.8202	-14.661	102.933	1.86535	102.762	-7.1074	100.853	-18.668	74.5792	4.81333	102.551
426591	-10.3978	97.6364	-4.13139	102.555	-40.5014	71.0334	-14.4174	102.925	2.10393	102.713	-6.91884	101.009	-18.5909	74.8233	5.0067	102.402
426592	-10.2468	97.8309	-3.92275	102.681	-40.3189	71.2457	-14.1738	102.917	2.34256	102.663	-6.73038	101.165	-18.5137	75.0671	5.20017	102.254
426593	-10.0958	98.0253	-3.71422	102.807	-40.1362	71.4571	-13.9301	102.909	2.58123	102.613	-6.54202	101.32	-18.4365	75.3109	5.39376	102.105
426594	-9.9449	98.2197	-3.50579	102.934	-39.9533	71.6675	-13.6865	102.901	2.81996	102.564	-6.35377	101.476	-18.3591	75.5545	5.58745	101.956
426595	-9.79409	98.414	-3.29747	103.061	-39.7701	71.8771	-13.4428	102.894	3.05872	102.515	-6.16562	101.632	-18.2817	75.798	5.78125	101.808
426596	-9.64335	98.6083	-3.08926	103.188	-39.5868	72.0858	-13.1992	102.887	3.29753	102.466	-5.97757	101.788	-18.2041	76.0413	5.97516	101.659
426597	-9.49268	98.8026	-2.88116	103.315	-39.4031	72.2936	-12.9555	102.88	3.53639	102.418	-5.78963	101.944	-18.1265	76.2845	6.16917	101.511
426598	-9.3421	98.9969	-2.67316	103.442	-39.2193	72.5006	-12.7119	102.874	3.77529	102.369	-5.6018	102.1	-18.0488	76.5275	6.36328	101.362
426599	-9.1916	99.1911	-2.46528	103.569	-39.0353	72.7066	-12.4682	102.868	4.01423	102.321	-5.41408	102.256	-17.9711	76.7704	6.55749	101.214
426600	-9.04118	99.3854	-2.25751	103.697	-38.8511	72.9119	-12.2245	102.862	4.25322	102.273	-5.22647	102.412	-17.8932	77.0132	6.7518	101.066
426601	-8.89085	99.5796	-2.04985	103.824	-38.6667	73.1163	-11.9808	102.856	4.49225	102.225	-5.03898	102.569	-17.8153	77.2558	6.94621	100.918
426602	-8.7406	99.7738	-1.8423	103.952	-38.482	73.3199	-11.7371	102.85	4.73132	102.178	-4.8516	102.725	-17.7373	77.4984	7.14071	100.77
426603	-8.59044	99.968	-1.63487	104.08	-38.2972	73.5227	-11.4935	102.845	4.97044	102.13	-4.66433	102.882	-17.6592	77.7407	7.33531	100.622
426604	-8.44037	100.162	-1.42756	104.209	-38.1122	73.7247	-11.2498	102.84	5.20959	102.083	-4.47718	103.038	-17.5811	77.983	7.53001	100.474
426605	-8.29039	100.356	-1.22036	104.337	-37.927	73.9259	-11.0061	102.836	5.44879	102.036	-4.29015	103.195	-17.5029	78.2251	7.7248	100.326
426606	-8.1405	100.551	-1.01329	104.465	-37.7416	74.1263	-10.7624	102.831	5.68803	101.989	-4.10325	103.352	-17.4246	78.4671	7.91967	100.179
426607	-7.99071	100.745	-0.806332	104.594	-37.556	74.3259	-10.5186	102.827	5.92732	101.943	-3.91646	103.509	-17.3462	78.709	8.11464	100.031
426608	-7.84101	100.939	-0.599497	104.723	-37.3702	74.5248	-10.2749	102.823	6.16664	101.896	-3.72979	103.666	-17.2678	78.9507	8.3097	99.8833
426609	-7.69142	101.133	-0.392785	104.852	-37.1843	74.7229	-10.0312	102.819	6.406	101.85	-3.54325	103.823	-17.1893	79.1923	8.50485	99.7357
426610	-7.54192	101.327	-0.186197	104.982	-36.9982	74.9202	-9.7875	102.816	6.64541	101.804	-3.35684	103.98	-17.1108	79.4338	8.70008	99.5881
426611	-7.39252	101.522	0.0202666	105.111	-36.8119	75.1169	-9.54378	102.813	6.88485	101.758	-3.17055	104.138	-17.0322	79.6751	8.89539	99.4406
426612	-7.24323	101.716	0.226604	105.241	-36.6254	75.3128	-9.30006	102.81	7.12433	101.713	-2.9844	104.295	-16.9535	79.9164	9.09079	99.2931
426613	-7.09404	101.91	0.432813	105.371	-36.4388	75.5079	-9.05633	102.807	7.36386	101.667	-2.79837	104.453	-16.8748	80.1575	9.28627	99.1456
426614	-6.94496	102.104	0.638893	105.501	-36.252	75.7024	-8.8126	102.804	7.60342	101.622	-2.61248	104.611	-16.796	80.3985	9.48184	98.9982
426615	-6.79599	102.299	0.844844	105.631	-36.0651	75.8961	-8.56887	102.802	7.84302	101.577	-2.42672	104.769	-16.7172	80.6394	9.67748	98.8508
426616	-6.64713	102.493	1.05066	105.762	-35.878	76.0892	-8.32513	102.8	8.08266	101.532	-2.24109	104.927	-16.6382	80.8801	9.8732	98.7034
426617	-6.49838	102.687	1.25635	105.892	-35.6907	76.2816	-8.0814	102.798	8.32233	101.487	-2.0556	105.085	-16.5593	81.1207	10.069	98.556
426618	-6.34975	102.882	1.4619	106.023	-35.5033	76.4732	-7.83766	102.797	8.56205	101.443	-1.87025	105.243	-16.4803	81.3613	10.2649	98.4086
426619	-6.20122	103.076	1.66732	106.155	-35.3157	76.6643	-7.59393	102.796	8.8018	101.398	-1.68504	105.402	-16.4013	81.6017	10.4608	98.2613
426620	-6.05282	103.271	1.8726	106.286	-35.128	76.8546	-7.35019	102.794	9.04159	101.354	-1.49997	105.561	-16.3222	81.8419	10.6568	98.114
426621	-5.90454	103.465	2.07774	106.418	-34.9401	77.0443	-7.10645	102.794	9.28142	101.31	-1.31505	105.719	-16.243	82.0821	10.8529	97.9666
426622	-5.75638	103.66	2.28274	106.55	-34.7521	77.2334	-6.86271	102.793	9.52128	101.266	-1.13027	105.878	-16.1638	82.3222	11.0491	97.8193
426623	-5.60834	103.854	2.4876	106.682	-34.5639	77.4218	-6.61897	102.793	9.76118	101.223	-0.945632	106.037	-16.0846	82.5621	11.2453	97.6719
426624	-5.46042	104.049	2.69232	106.814	-34.3757	77.6096	-6.37523	102.793	10.0011	101.179	-0.761145	106.197	-16.0053	82.802	11.4416	97.5246
426625	-5.31263	104.243	2.8969	106.947	-34.1872	77.7968	-6.13149	102.793	10.2411	101.136	-0.576808	106.356	-15.926	83.0417	11.638	97.3772
426626	-5.16497	104.438	3.10134	107.08	-33.9987	77.9833	-5.88775	102.793	10.4811	101.093	-0.39262	106.516	-15.8466	83.2813	11.8344	97.2299
426627	-5.01743	104.633	3.30562	107.213	-33.81	78.1693	-5.64401	102.794	10.7211	101.05	-0.208586	106.676	-15.7672	83.5208	12.0309	97.0825
426628	-4.87003	104.828	3.50976	107.346	-33.6212	78.3546	-5.40028	102.795	10.9612	101.007	-0.0247055	106.836	-15.6877	83.7602	12.2275	96.9351
426629	-4.72276	105.023	3.71375	107.48	-33.4322	78.5394	-5.15654	102.796	11.2013	100.965	0.159019	106.996	-15.6083	83.9995	12.4241	96.7877
426630	-4.57563	105.218	3.91759	107.614	-33.2432	78.7236	-4.91281	102.797	11.4415	100.922	0.342587	107.156	-15.5288	84.2387	12.6208	96.6402
426631	-4.42863	105.413	4.12128	107.748	-33.054	78.9071	-4.66907	102.799	11.6816	100.88	0.525995	107.317	-15.4492	84.4777	12.8175	96.4927
426632	-4.28177	105.608	4.32481	107.882	-32.8647	79.0902	-4.42534	102.801	11.9218	100.838	0.709243	107.477	-15.3696	84.7167	13.0143	96.3452
426633	-4.13505	105.803	4.52819	108.017	-32.6752	79.2726	-4.18161	102.803	12.1621	100.796	0.892329	107.638	-15.29	84.9556	13.2111	96.1976
426634	-3.98847	105.998	4.73142	108.152	-32.4857	79.4545	-3.93789	102.805	12.4024	100.754	1.07525	107.799	-15.2104	85.1944	13.4081	96.05
426635	-3.84204	106.193	4.93448	108.287	-32.2961	79.6359	-3.69416	102.807	12.6427	100.712	1.25801	107.961	-15.1307	85.433	13.605	95.9024
426636	-3.69575	106.389	5.13739	108.423	-32.1063	79.8167	-3.45044	102.81	12.883	100.671	1.4406	108.122	-15.051	85.6716	13.802	95.7547
426637	-3.5496	106.584	5.34014	108.559	-31.9164	79.997	-3.20672	102.813	13.1234	100.629	1.62302	108.284	-14.9713	85.9101	13.9991	95.607
426638	-3.40361	106.78	5.54273	108.695	-31.7264	80.1768	-2.96301	102.816	13.3638	100.588	1.80527	108.446	-14.8915	86.1485	14.1962	95.4592
426639	-3.25777	106.975	5.74515	108.831	-31.5364	80.356	-2.71929	102.82	13.6043	100.547	1.98735	108.608	-14.8118	86.3867	14.3934	95.3113
426640	-3.11207	107.171	5.94741	108.968	-31.3462	80.5348	-2.47559	102.823	13.8447	100.507	2.16925	108.77	-14.732	86.6249	14.5906	95.1634
426641	-2.96654	107.367	6.1495	109.105	-31.1559	80.713	-2.23188	102.828	14.0852	100.466	2.35098	108.933	-14.6522	86.863	14.7878	95.0154
426642	-2.82115	107.563	6.35142	109.242	-30.9656	80.8907	-1.98818	102.832	14.3258	100.425	2.53253	109.095	-14.5724	87.101	14.9851	94.8673
426643	-2.67593	107.758	6.55318	109.38	-30.7751	81.0679	-1.74449	102.836	14.5663	100.385	2.71391	109.258	-14.4925	87.3389	15.1825	94.7192
426644	-2.53087	107.954	6.75476	109.518	-30.5845	81.2447	-1.5008	102.841	14.8069	100.345	2.8951	109.421	-14.4126	87.5767	15.3799	94.571
426645	-2.38596	108.151	6.95617	109.656	-30.3939	81.4209	-1.25711	102.846	15.0476	100.305	3.07611	109.585	-14.3328	87.8144	15.5773	94.4227
426646	-2.24122	108.347	7.15741	109.794	-30.2031	81.5967	-1.01343	102.851	15.2882	100.265	3.25693	109.749	-14.2529	88.0521	15.7748	94.2743
426647	-2.09665	108.543	7.35847	109.933	-30.0123	81.7721	-0.769754	102.856	15.5289	100.225	3.43757	109.912	-14.173	88.2896	15.9723	94.1258
426648	-1.95224	108.74	7.55936	110.073	-29.8214	81.9469	-0.526084	102.862	15.7696	100.186	3.61802	110.077	-14.0931	88.5271	16.1698	93.9773
426649	-1.80799	108.936	7.76006	110.212	-29.6304	82.1213	-0.282419	102.867	16.0104	100.146	3.79829	110.241	-14.0132	88.7644	16.3674	93.8286
426650	-1.66392	109.133	7.96059	110.352	-29.4393	82.2953	-0.0387609	102.874	16.2512	100.107	3.97836	110.406	-13.9333	89.0017	16.565	93.6799
426651	-1.52002	109.33	8.16093	110.492	-29.2482	82.4688	0.204891	102.88	16.492	100.067	4.15824	110.57	-13.8533	89.2389	16.7626	93.531
426652	-1.3763	109.527	8.36109	110.633	-29.057	82.6419	0.448537	102.886	16.7328	100.028	4.33792	110.736	-13.7734	89.4761	16.9603	93.382
426653	-1.23275	109.724	8.56106	110.773	-28.8656	82.8146	0.692176	102.893	16.9737	99.9897	4.51741	110.901	-13.6935	89.7131	17.158	93.2329
426654	-1.08937	109.921	8.76085	110.915	-28.6743	82.9868	0.935808	102.9	17.2146	99.951	4.6967	111.067	-13.6135	89.95	17.3557	93.0837
426655	-0.946181	110.118	8.96045	111.056	-28.4828	83.1586	1.17943	102.907	17.4555	99.9124	4.87579	111.232	-13.5336	90.1869	17.5535	92.9344
426656	-0.803168	110.315	9.15986	111.198	-28.2913	83.33	1.42305	102.915	17.6964	99.8739	5.05468	111.398	-13.4536	90.4237	17.7513	92.785
426657	-0.660338	110.513	9.35907	111.34	-28.0997	83.501	1.66666	102.922	17.9374	99.8357	5.23336	111.565	-13.3737	90.6604	17.9491	92.6354
426658	-0.517692	110.71	9.55809	111.483	-27.9081	83.6716	1.91026	102.93	18.1784	99.7975	5.41184	111.732	-13.2938	90.8971	18.1469	92.4857
426659	-0.375233	110.908	9.75692	111.626	-27.7164	83.8418	2.15386	102.939	18.4195	99.7595	5.59011	111.899	-13.2139	91.1336	18.3448	92.3358
426660	-0.232961	111.106	9.95555	111.769	-27.5246	84.0117	2.39744	102.947	18.6605	99.7216	5.76817	112.066	-13.134	91.3701	18.5427	92.1859
426661	-0.0908798	111.304	10.154	111.913	-27.3328	84.1811	2.64102	102.956	18.9016	99.6839	5.94602	112.233	-13.054	91.6065	18.7406	92.0357
426662	0.0510097	111.502	10.3522	112.057	-27.1409	84.3502	2.88459	102.965	19.1427	99.6463	6.12366	112.401	-12.9741	91.8429	18.9385	91.8855
426663	0.192706	111.701	10.5502	112.201	-26.9489	84.5189	3.12815	102.974	19.3839	99.6089	6.30108	112.569	-12.8942	92.0791	19.1364	91.735
426664	0.334206	111.899	10.7481	112.346	-26.7569	84.6872	3.3717	102.983	19.625	99.5716	6.47829	112.737	-12.8144	92.3153	19.3344	91.5844
426665	0.475509	112.098	10.9457	112.492	-26.5649	84.8551	3.61524	102.993	19.8662	99.5344	6.65528	112.906	-12.7345	92.5514	19.5324	91.4337
426666	0.616613	112.296	11.1431	112.637	-26.3728	85.0228	3.85877	103.003	20.1075	99.4974	6.83204	113.075	-12.6547	92.7875	19.7303	91.2828
426667	0.757516	112.495	11.3403	112.783	-26.1806	85.19	4.10229	103.013	20.3487	99.4605	7.00859	113.244	-12.5748	93.0235	19.9283	91.1317
426668	0.898216	112.694	11.5373	112.93	-25.9884	85.3569	4.3458	103.023	20.59	99.4238	7.18491	113.414	-12.495	93.2594	20.1263	90.9804
426669	1.03871	112.893	11.734	113.076	-25.7962	85.5235	4.5893	103.034	20.8313	99.3871	7.361	113.584	-12.4152	93.4953	20.3243	90.829
426670	1.179	113.093	11.9306	113.224	-25.6039	85.6898	4.83279	103.045	21.0726	99.3506	7.53687	113.754	-12.3354	93.731	20.5223	90.6774
426671	1.31908	113.292	12.1269	113.371	-25.4115	85.8557	5.07626	103.056	21.3139	99.3143	7.7125	113.924	-12.2557	93.9668	20.7204	90.5256
426672	1.45895	113.492	12.3231	113.519	-25.2192	86.0213	5.31973	103.067	21.5553	99.2781	7.8879	114.095	-12.1759	94.2024	20.9184	90.3736
426673	1.59861	113.692	12.519	113.668	-25.0267	86.1866	5.56318	103.079	21.7967	99.242	8.06307	114.266	-12.0962	94.438	21.1164	90.2214
426674	1.73805	113.892	12.7146	113.817	-24.8343	86.3516	5.80663	103.091	22.0381	99.206	8.238	114.438	-12.0166	94.6736	21.3145	90.069
426675	1.87728	114.092	12.9101	113.966	-24.6418	86.5162	6.05006	103.103	22.2796	99.1702	8.41269	114.609	-11.9369	94.909	21.5125	89.9164
426676	2.01629	114.292	13.1053	114.116	-24.4493	86.6806	6.29348	103.115	22.521	99.1345	8.58715	114.782	-11.8573	95.1445	21.7105	89.7636
426677	2.15508	114.493	13.3003	114.266	-24.2568	86.8446	6.53688	103.128	22.7625	99.0989	8.76136	114.954	-11.7777	95.3798	21.9086	89.6106
426678	2.29365	114.693	13.4951	114.416	-24.0642	87.0084	6.78028	103.141	23.004	99.0635	8.93532	115.127	-11.6981	95.6151	22.1066	89.4574
426679	2.43199	114.894	13.6896	114.567	-23.8716	87.1719	7.02366	103.154	23.2456	99.0282	9.10904	115.3	-11.6186	95.8504	22.3046	89.3039
426680	2.57011	115.095	13.8839	114.719	-23.6789	87.3351	7.26702	103.167	23.4872	98.993	9.28251	115.473	-11.5391	96.0855	22.5026	89.1502
426681	2.708	115.296	14.078	114.871	-23.4863	87.498	7.51038	103.18	23.7288	98.9579	9.45573	115.647	-11.4596	96.3207	22.7006	88.9963
426682	2.84567	115.498	14.2718	115.023	-23.2936	87.6607	7.75371	103.194	23.9704	98.923	9.6287	115.821	-11.3802	96.5558	22.8986	88.8422
426683	2.9831	115.699	14.4654	115.176	-23.1009	87.8231	7.99704	103.209	24.212	98.8882	9.80141	115.996	-11.3008	96.7908	23.0966	88.6878
426684	3.1203	115.901	14.6587	115.329	-22.9081	87.9852	8.24035	103.223	24.4536	98.8535	9.97387	116.17	-11.2214	97.0258	23.2946	88.5332
426685	3.25726	116.103	14.8518	115.483	-22.7154	88.1471	8.48365	103.237	24.6953	98.819	10.1461	116.346	-11.1421	97.2607	23.4926	88.3783
426686	3.39399	116.305	15.0446	115.637	-22.5226	88.3087	8.72693	103.252	24.937	98.7846	10.318	116.521	-11.0628	97.4955	23.6905	88.2231
426687	3.53048	116.507	15.2372	115.792	-22.3299	88.4701	8.97019	103.267	25.1788	98.7503	10.4897	116.697	-10.9836	97.7304	23.8884	88.0677
426688	3.66673	116.71	15.4296	115.947	-22.1371	88.6312	9.21344	103.283	25.4205	98.7161	10.6611	116.873	-10.9044	97.9651	24.0864	87.912
426689	3.80273	116.912	15.6217	116.103	-21.9443	88.7921	9.45668	103.299	25.6623	98.6821	10.8322	117.05	-10.8253	98.1999	24.2843	87.7561
426690	3.93849	117.115	15.8135	116.259	-21.7514	88.9527	9.6999	103.314	25.9041	98.6481	11.0031	117.227	-10.7462	98.4346	24.4821	87.5999
426691	4.07401	117.318	16.0051	116.416	-21.5586	89.1131	9.9431	103.331	26.1459	98.6143	11.1737	117.404	-10.6671	98.6692	24.68	87.4434
426692	4.20927	117.521	16.1964	116.573	-21.3658	89.2733	10.1863	103.347	26.3877	98.5807	11.344	117.582	-10.5881	98.9038	24.8778	87.2866
426693	4.34429	117.725	16.3874	116.731	-21.1729	89.4333	10.4294	103.364	26.6295	98.5471	11.514	117.76	-10.5092	99.1384	25.0756	87.1296
426694	4.47905	117.928	16.5782	116.889	-20.9801	89.5931	10.6726	103.381	26.8714	98.5137	11.6838	117.938	-10.4303	99.3729	25.2734	86.9722
426695	4.61356	118.132	16.7687	117.047	-20.7872	89.7526	10.9157	103.398	27.1133	98.4803	11.8533	118.117	-10.3515	99.6073	25.4711	86.8145
426696	4.74781	118.336	16.959	117.206	-20.5943	89.912	11.1588	103.416	27.3552	98.4471	12.0225	118.296	-10.2727	99.8418	25.6688	86.6566
426697	4.8818	118.541	17.1489	117.366	-20.4015	90.0711	11.4019	103.433	27.5972	98.4141	12.1914	118.476	-10.1939	100.076	25.8665	86.4983
426698	5.01554	118.745	17.3386	117.526	-20.2086	90.23	11.645	103.451	27.8391	98.3811	12.36	118.656	-10.1153	100.311	26.0642	86.3397
426699	5.14901	118.95	17.5281	117.687	-20.0158	90.3888	11.8881	103.47	28.0811	98.3483	12.5284	118.837	-10.0367	100.545	26.2618	86.1808
426700	5.28221	119.155	17.7172	117.848	-19.8229	90.5473	12.1311	103.488	28.3231	98.3156	12.6964	119.018	-9.95811	100.779	26.4594	86.0215
426701	5.41516	119.36	17.906	118.01	-19.6301	90.7057	12.3742	103.507	28.5651	98.283	12.8642	119.199	-9.87962	101.013	26.6569	85.8619
426702	5.54783	119.565	18.0946	118.172	-19.4372	90.8639	12.6172	103.526	28.8072	98.2505	13.0316	119.381	-9.80119	101.248	26.8544	85.702
426703	5.68023	119.771	18.2829	118.335	-19.2444	91.0219	12.8601	103.546	29.0492	98.2181	13.1988	119.563	-9.72283	101.482	27.0519	85.5418
426704	5.81236	119.977	18.4709	118.499	-19.0516	91.1797	13.1031	103.566	29.2913	98.1859	13.3656	119.745	-9.64453	101.716	27.2493	85.3812
426705	5.94422	120.183	18.6586	118.663	-18.8588	91.3374	13.346	103.586	29.5334	98.1538	13.5322	119.928	-9.56629	101.95	27.4466	85.2202
426706	6.0758	120.389	18.846	118.827	-18.666	91.4949	13.589	103.606	29.7755	98.1218	13.6984	120.112	-9.48813	102.184	27.644	85.0589
426707	6.2071	120.596	19.0331	118.992	-18.4732	91.6523	13.8319	103.626	30.0176	98.0899	13.8644	120.295	-9.41003	102.418	27.8412	84.8972
426708	6.33812	120.802	19.2199	119.158	-18.2804	91.8094	14.0747	103.647	30.2598	98.0581	14.03	120.48	-9.33201	102.652	28.0385	84.7352
426709	6.46886	121.009	19.4065	119.324	-18.0877	91.9665	14.3176	103.668	30.502	98.0265	14.1953	120.664	-9.25405	102.886	28.2356	84.5727
426710	6.59931	121.216	19.5927	119.491	-17.8949	92.1234	14.5604	103.69	30.7442	97.9949	14.3603	120.849	-9.17617	103.12	28.4327	84.4099
426711	6.72948	121.424	19.7786	119.658	-17.7022	92.2801	14.8032	103.712	30.9864	97.9635	14.525	121.035	-9.09837	103.354	28.6298	84.2467
426712	6.85936	121.632	19.9642	119.826	-17.5095	92.4367	15.046	103.734	31.2286	97.9322	14.6893	121.221	-9.02064	103.588	28.8268	84.0831
426713	6.98895	121.84	20.1494	119.995	-17.3169	92.5932	15.2888	103.756	31.4708	97.901	14.8533	121.407	-8.94298	103.822	29.0238	83.9191
426714	7.11825	122.048	20.3344	120.164	-17.1242	92.7495	15.5315	103.779	31.7131	97.8699	15.017	121.594	-8.86541	104.056	29.2207	83.7547
426715	7.24725	122.256	20.519	120.334	-16.9316	92.9057	15.7743	103.802	31.9554	97.839	15.1804	121.781	-8.78791	104.29	29.4175	83.5899
426716	7.37596	122.465	20.7034	120.504	-16.739	93.0618	16.017	103.825	32.1977	97.8081	15.3434	121.969	-8.71049	104.523	29.6143	83.4246
426717	7.50436	122.674	20.8874	120.675	-16.5464	93.2178	16.2596	103.848	32.44	97.7774	15.5061	122.157	-8.63316	104.757	29.811	83.259
426718	7.63247	122.883	21.071	120.846	-16.3539	93.3736	16.5023	103.872	32.6824	97.7468	15.6685	122.346	-8.55591	104.991	30.0076	83.0929
426719	7.76027	123.092	21.2544	121.019	-16.1614	93.5293	16.7449	103.896	32.9247	97.7163	15.8305	122.535	-8.47874	105.225	30.2042	82.9263
426720	7.88777	123.302	21.4374	121.191	-15.9689	93.685	16.9875	103.921	33.1671	97.6859	15.9922	122.725	-8.40167	105.459	30.4007	82.7594
426721	8.01496	123.512	21.62	121.365	-15.7765	93.8405	17.23	103.945	33.4095	97.6556	16.1535	122.915	-8.32467	105.692	30.5971	82.5919
426722	8.14185	123.722	21.8024	121.539	-15.5841	93.9959	17.4726	103.97	33.6519	97.6255	16.3145	123.105	-8.24777	105.926	30.7934	82.424
426723	8.26842	123.932	21.9844	121.713	-15.3917	94.1512	17.7151	103.996	33.8943	97.5954	16.4752	123.296	-8.17095	106.16	30.9897	82.2557
426724	8.39468	124.143	22.166	121.889	-15.1994	94.3064	17.9576	104.022	34.1367	97.5655	16.6355	123.488	-8.09423	106.393	31.1859	82.0869
426725	8.52062	124.354	22.3473	122.065	-15.0071	94.4616	18.2	104.047	34.3792	97.5357	16.7954	123.68	-8.0176	106.627	31.382	81.9176
426726	8.64625	124.565	22.5283	122.241	-14.8148	94.6166	18.4425	104.074	34.6217	97.506	16.955	123.872	-7.94106	106.861	31.578	81.7478
426727	8.77155	124.776	22.7089	122.419	-14.6226	94.7716	18.6849	104.1	34.8641	97.4764	17.1142	124.065	-7.86462	107.094	31.774	81.5775
426728	8.89654	124.988	22.8892	122.597	-14.4304	94.9265	18.9273	104.127	35.1067	97.447	17.2731	124.259	-7.78827	107.328	31.9698	81.4068
426729	9.0212	125.2	23.069	122.775	-14.2383	95.0813	19.1696	104.155	35.3492	97.4176	17.4316	124.453	-7.71203	107.561	32.1656	81.2355
426730	9.14553	125.412	23.2486	122.954	-14.0462	95.2361	19.4119	104.182	35.5917	97.3884	17.5897	124.647	-7.63588	107.795	32.3613	81.0637
426731	9.26954	125.625	23.4277	123.134	-13.8542	95.3907	19.6542	104.21	35.8343	97.3592	17.7474	124.842	-7.55983	108.029	32.5569	80.8914
426732	9.39322	125.838	23.6065	123.315	-13.6622	95.5454	19.8965	104.239	36.0768	97.3302	17.9048	125.037	-7.48388	108.262	32.7524	80.7186
426733	9.51656	126.051	23.7849	123.496	-13.4703	95.6999	20.1387	104.267	36.3194	97.3013	18.0618	125.233	-7.40803	108.496	32.9478	80.5452
426734	9.63957	126.264	23.963	123.678	-13.2784	95.8544	20.3809	104.296	36.562	97.2725	18.2184	125.43	-7.33229	108.73	33.1431	80.3713
426735	9.76224	126.478	24.1407	123.861	-13.0866	96.0089	20.623	104.326	36.8046	97.2438	18.3746	125.627	-7.25665	108.963	33.3383	80.1968
426736	9.88458	126.692	24.3179	124.044	-12.8948	96.1633	20.8652	104.355	37.0472	97.2153	18.5305	125.824	-7.18112	109.197	33.5334	80.0218
426737	10.0066	126.906	24.4948	124.228	-12.7031	96.3176	21.1073	104.385	37.2899	97.1868	18.6859	126.022	-7.10569	109.43	33.7284	79.8463
426738	10.1282	127.12	24.6714	124.413	-12.5115	96.4719	21.3493	104.416	37.5326	97.1585	18.841	126.221	-7.03038	109.664	33.9233	79.6701
426739	10.2495	127.335	24.8475	124.598	-12.3199	96.6262	21.5913	104.447	37.7752	97.1303	18.9957	126.42	-6.95517	109.897	34.118	79.4934
426740	10.3705	127.55	25.0232	124.785	-12.1283	96.7804	21.8333	104.478	38.0179	97.1022	19.15	126.62	-6.88008	110.131	34.3127	79.3161
426741	10.4911	127.766	25.1986	124.972	-11.9369	96.9346	22.0753	104.509	38.2606	97.0742	19.3038	126.82	-6.80509	110.365	34.5072	79.1382
426742	10.6114	127.981	25.3735	125.159	-11.7454	97.0888	22.3172	104.541	38.5033	97.0463	19.4573	127.02	-6.73023	110.598	34.7017	78.9597
426743	10.7313	128.197	25.548	125.347	-11.5541	97.243	22.5591	104.573	38.7461	97.0186	19.6104	127.222	-6.65547	110.832	34.896	78.7806
426744	10.8508	128.413	25.7221	125.537	-11.3628	97.3971	22.801	104.606	38.9888	96.9909	19.763	127.423	-6.58084	111.065	35.0902	78.6009
426745	10.97	128.63	25.8958	125.727	-11.1716	97.5512	23.0428	104.638	39.2316	96.9634	19.9153	127.626	-6.50632	111.299	35.2843	78.4205
426746	11.0888	128.846	26.0691	125.917	-10.9804	97.7053	23.2846	104.672	39.4744	96.936	20.0671	127.829	-6.43192	111.532	35.4782	78.2395
426747	11.2073	129.064	26.242	126.109	-10.7894	97.8594	23.5263	104.705	39.7171	96.9087	20.2185	128.032	-6.35764	111.766	35.672	78.0579
426748	11.3254	129.281	26.4144	126.301	-10.5984	98.0135	23.768	104.739	39.9599	96.8815	20.3695	128.236	-6.28348	111.999	35.8657	77.8756
426749	11.4431	129.499	26.5865	126.493	-10.4074	98.1676	24.0097	104.774	40.2028	96.8544	20.5201	128.44	-6.20944	112.233	36.0593	77.6927
426750	11.5605	129.716	26.7581	126.687	-10.2166	98.3216	24.2513	104.809	40.4456	96.8275	20.6702	128.645	-6.13553	112.467	36.2527	77.5091
426751	11.6775	129.935	26.9292	126.882	-10.0258	98.4757	24.4929	104.844	40.6884	96.8006	20.8199	128.851	-6.06174	112.7	36.446	77.3248
426752	11.7941	130.153	27.1	127.077	-9.83508	98.6298	24.7345	104.879	40.9313	96.7739	20.9692	129.057	-5.98807	112.934	36.6391	77.1398
426753	11.9104	130.372	27.2702	127.273	-9.64445	98.7839	24.976	104.915	41.1742	96.7473	21.118	129.264	-5.91454	113.167	36.8321	76.9541
426754	12.0262	130.591	27.4401	127.469	-9.45389	98.938	25.2175	104.952	41.4171	96.7208	21.2664	129.471	-5.84113	113.401	37.025	76.7678
426755	12.1417	130.811	27.6095	127.667	-9.26342	99.0922	25.4589	104.989	41.6599	96.6945	21.4144	129.679	-5.76786	113.635	37.2177	76.5807
426756	12.2568	131.03	27.7784	127.865	-9.07304	99.2463	25.7003	105.026	41.9029	96.6682	21.5619	129.888	-5.69471	113.868	37.4103	76.3929
426757	12.3715	131.251	27.9469	128.065	-8.88273	99.4005	25.9416	105.064	42.1458	96.6421	21.709	130.097	-5.6217	114.102	37.6027	76.2044
426758	12.4859	131.471	28.1149	128.264	-8.69251	99.5547	26.1829	105.102	42.3887	96.6161	21.8556	130.306	-5.54882	114.336	37.795	76.0151
426759	12.5998	131.692	28.2825	128.465	-8.50238	99.7089	26.4242	105.14	42.6317	96.5902	22.0017	130.517	-5.47607	114.569	37.987	75.8251
426760	12.7134	131.913	28.4496	128.667	-8.31233	99.8632	26.6654	105.179	42.8746	96.5644	22.1474	130.727	-5.40346	114.803	38.179	75.6343
426761	12.8265	132.134	28.6162	128.869	-8.12237	100.017	26.9066	105.218	43.1176	96.5388	22.2926	130.939	-5.33099	115.037	38.3708	75.4428
426762	12.9393	132.356	28.7824	129.072	-7.93251	100.172	27.1477	105.258	43.3606	96.5133	22.4374	131.151	-5.25866	115.27	38.5624	75.2504
426763	13.0517	132.577	28.948	129.277	-7.74273	100.326	27.3888	105.298	43.6036	96.4879	22.5817	131.363	-5.18647	115.504	38.7538	75.0573
426764	13.1636	132.8	29.1132	129.482	-7.55305	100.481	27.6298	105.339	43.8466	96.4626	22.7255	131.577	-5.11441	115.738	38.9451	74.8634
426765	13.2752	133.022	29.2779	129.687	-7.36346	100.635	27.8708	105.38	44.0896	96.4374	22.8689	131.79	-5.0425	115.972	39.1362	74.6687
426766	13.3863	133.245	29.4421	129.894	-7.17398	100.79	28.1117	105.421	44.3326	96.4124	23.0117	132.005	-4.97074	116.206	39.3271	74.4731
426767	13.4971	133.468	29.6058	130.101	-6.98458	100.944	28.3526	105.463	44.5757	96.3875	23.1541	132.22	-4.89911	116.439	39.5178	74.2768
426768	13.6074	133.692	29.769	130.31	-6.79529	101.099	28.5934	105.506	44.8187	96.3627	23.296	132.435	-4.82763	116.673	39.7083	74.0796
426769	13.7173	133.916	29.9317	130.519	-6.60609	101.254	28.8342	105.549	45.0618	96.338	23.4374	132.651	-4.75631	116.907	39.8987	73.8815
426770	13.8269	134.14	30.0939	130.729	-6.417	101.408	29.0749	105.592	45.3049	96.3135	23.5784	132.868	-4.68512	117.141	40.0889	73.6826
426771	13.936	134.364	30.2556	130.94	-6.22802	101.563	29.3156	105.636	45.548	96.2891	23.7188	133.086	-4.61409	117.375	40.2788	73.4828
426772	14.0446	134.589	30.4167	131.151	-6.03913	101.718	29.5562	105.68	45.7911	96.2648	23.8587	133.304	-4.54321	117.609	40.4686	73.2821
426773	14.1529	134.814	30.5774	131.364	-5.85036	101.873	29.7968	105.725	46.0342	96.2407	23.9981	133.522	-4.47248	117.843	40.6582	73.0806
426774	14.2607	135.04	30.7375	131.578	-5.66169	102.028	30.0374	105.77	46.2773	96.2167	24.137	133.742	-4.4019	118.077	40.8476	72.8781
426775	14.3681	135.265	30.8971	131.792	-5.47312	102.183	30.2778	105.816	46.5204	96.1928	24.2754	133.962	-4.33148	118.311	41.0367	72.6747
426776	14.4751	135.491	31.0561	132.007	-5.28468	102.339	30.5182	105.862	46.7636	96.169	24.4133	134.182	-4.26121	118.545	41.2257	72.4704
426777	14.5817	135.718	31.2146	132.224	-5.09634	102.494	30.7586	105.909	47.0067	96.1454	24.5507	134.403	-4.19109	118.779	41.4145	72.2652
426778	14.6878	135.945	31.3726	132.441	-4.90811	102.65	30.9989	105.956	47.2499	96.1219	24.6876	134.625	-4.12114	119.013	41.603	72.059
426779	14.7935	136.172	31.53	132.659	-4.72	102.805	31.2391	106.004	47.4931	96.0985	24.8239	134.847	-4.05135	119.247	41.7913	71.8518
426780	14.8987	136.399	31.6869	132.878	-4.53201	102.961	31.4793	106.052	47.7363	96.0753	24.9597	135.071	-3.98171	119.481	41.9794	71.6437
426781	15.0035	136.627	31.8432	133.098	-4.34413	103.116	31.7195	106.101	47.9795	96.0522	25.095	135.294	-3.91224	119.715	42.1673	71.4346
426782	15.1079	136.855	31.9989	133.319	-4.15637	103.272	31.9595	106.151	48.2227	96.0293	25.2297	135.519	-3.84293	119.949	42.3549	71.2245
426783	15.2118	137.083	32.1541	133.54	-3.96874	103.428	32.1995	106.201	48.4659	96.0065	25.3639	135.744	-3.77378	120.184	42.5423	71.0133
426784	15.3153	137.312	32.3087	133.763	-3.78123	103.584	32.4395	106.251	48.7091	95.9838	25.4976	135.969	-3.70479	120.418	42.7294	70.8012
426785	15.4183	137.541	32.4627	133.987	-3.59383	103.74	32.6794	106.302	48.9524	95.9613	25.6307	136.195	-3.63598	120.652	42.9164	70.588
426786	15.5209	137.77	32.6162	134.211	-3.40657	103.897	32.9192	106.353	49.1956	95.9389	25.7633	136.422	-3.56733	120.886	43.103	70.3738
426787	15.623	138	32.769	134.437	-3.21943	104.053	33.159	106.406	49.4389	95.9167	25.8953	136.65	-3.49885	121.121	43.2895	70.1585
426788	15.7247	138.23	32.9213	134.663	-3.03242	104.21	33.3987	106.458	49.6822	95.8945	26.0267	136.878	-3.43053	121.355	43.4756	69.9422
426789	15.8259	138.46	33.073	134.891	-2.84554	104.366	33.6383	106.511	49.9254	95.8726	26.1576	137.107	-3.36239	121.59	43.6616	69.7247
426790	15.9267	138.691	33.224	135.119	-2.65879	104.523	33.8778	106.565	50.1687	95.8508	26.288	137.337	-3.29442	121.824	43.8472	69.5062
426791	16.027	138.922	33.3745	135.348	-2.47217	104.68	34.1173	106.62	50.412	95.8291	26.4177	137.567	-3.22662	122.058	44.0326	69.2865
426792	16.1268	139.153	33.5243	135.579	-2.28569	104.837	34.3567	106.675	50.6553	95.8076	26.5469	137.798	-3.159	122.293	44.2177	69.0658
426793	16.2262	139.385	33.6736	135.81	-2.09934	104.994	34.5961	106.73	50.8986	95.7863	26.6755	138.029	-3.09156	122.527	44.4026	68.8439
426794	16.3251	139.617	33.8222	136.042	-1.91313	105.152	34.8354	106.786	51.142	95.7651	26.8036	138.261	-3.02428	122.762	44.5872	68.6208
426795	16.4235	139.849	33.9702	136.275	-1.72706	105.309	35.0746	106.843	51.3853	95.7441	26.931	138.494	-2.95719	122.997	44.7714	68.3966
426796	16.5214	140.082	34.1175	136.51	-1.54113	105.467	35.3137	106.901	51.6286	95.7232	27.0579	138.727	-2.89028	123.231	44.9554	68.1711
426797	16.6189	140.315	34.2643	136.745	-1.35534	105.624	35.5528	106.959	51.872	95.7024	27.1842	138.962	-2.82354	123.466	45.1392	67.9445
426798	16.7159	140.548	34.4103	136.981	-1.1697	105.782	35.7918	107.017	52.1153	95.6819	27.3099	139.196	-2.75699	123.701	45.3226	67.7167
426799	16.8124	140.782	34.5558	137.218	-0.984196	105.941	36.0307	107.077	52.3587	95.6615	27.435	139.432	-2.69062	123.935	45.5057	67.4877
426800	16.9084	141.016	34.7006	137.457	-0.798842	106.099	36.2696	107.137	52.6021	95.6412	27.5595	139.668	-2.62443	124.17	45.6885	67.2574
426801	17.004	141.25	34.8447	137.696	-0.613636	106.257	36.5083	107.197	52.8454	95.6212	27.6834	139.905	-2.55843	124.405	45.871	67.0259
426802	17.099	141.485	34.9881	137.936	-0.42858	106.416	36.747	107.259	53.0888	95.6013	27.8066	140.143	-2.49261	124.64	46.0532	66.7931
426803	17.1936	141.72	35.1309	138.177	-0.243674	106.575	36.9856	107.32	53.3322	95.5815	27.9293	140.381	-2.42698	124.875	46.2351	66.559
426804	17.2877	141.956	35.2731	138.419	-0.0589222	106.734	37.2241	107.383	53.5757	95.562	28.0513	140.62	-2.36154	125.11	46.4167	66.3236
426805	17.3813	142.191	35.4145	138.663	0.125676	106.893	37.4626	107.447	53.8191	95.5426	28.1728	140.859	-2.29629	125.345	46.5979	66.0869
426806	17.4744	142.427	35.5553	138.907	0.310117	107.052	37.7009	107.511	54.0625	95.5234	28.2936	141.099	-2.23122	125.58	46.7788	65.8489
426807	17.5669	142.664	35.6953	139.152	0.494402	107.212	37.9392	107.575	54.3059	95.5044	28.4138	141.34	-2.16635	125.815	46.9594	65.6095
426808	17.659	142.9	35.8347	139.399	0.678527	107.371	38.1774	107.641	54.5493	95.4856	28.5333	141.582	-2.10167	126.05	47.1396	65.3688
426809	17.7506	143.137	35.9734	139.646	0.862491	107.531	38.4155	107.707	54.7928	95.4669	28.6522	141.824	-2.03719	126.285	47.3195	65.1267
426810	17.8417	143.375	36.1114	139.894	1.04629	107.691	38.6535	107.774	55.0363	95.4484	28.7705	142.067	-1.9729	126.52	47.499	64.8832
426811	17.9323	143.613	36.2486	140.144	1.22993	107.852	38.8914	107.841	55.2797	95.4302	28.8881	142.31	-1.9088	126.756	47.6782	64.6383
426812	18.0223	143.851	36.3852	140.394	1.4134	108.012	39.1292	107.91	55.5232	95.4121	29.0051	142.555	-1.8449	126.991	47.857	64.3919
426813	18.1119	144.089	36.521	140.646	1.59671	108.173	39.367	107.979	55.7666	95.3942	29.1214	142.8	-1.7812	127.226	48.0354	64.1442
426814	18.2009	144.328	36.6561	140.899	1.77984	108.334	39.6046	108.049	56.0101	95.3765	29.237	143.046	-1.7177	127.462	48.2135	63.8949
426815	18.2894	144.567	36.7904	141.152	1.9628	108.495	39.8421	108.12	56.2536	95.3591	29.3521	143.292	-1.6544	127.697	48.3911	63.6442
426816	18.3774	144.806	36.9241	141.407	2.1456	108.656	40.0796	108.191	56.4971	95.3418	29.4664	143.539	-1.5913	127.933	48.5684	63.392
426817	18.4649	145.046	37.0569	141.662	2.32821	108.817	40.3169	108.264	56.7406	95.3247	29.5801	143.786	-1.52841	128.168	48.7453	63.1383
426818	18.5518	145.286	37.189	141.919	2.51066	108.979	40.5542	108.337	56.9841	95.3079	29.6931	144.035	-1.46572	128.404	48.9218	62.8831
426819	18.6383	145.526	37.3204	142.177	2.69292	109.141	40.7913	108.411	57.2276	95.2913	29.8054	144.284	-1.40323	128.639	49.0979	62.6263
426820	18.7242	145.767	37.451	142.436	2.87501	109.303	41.0284	108.486	57.4712	95.2749	29.9171	144.534	-1.34095	128.875	49.2736	62.3679
426821	18.8095	146.008	37.5808	142.696	3.05691	109.466	41.2653	108.561	57.7147	95.2587	30.028	144.784	-1.27887	129.111	49.4489	62.108
426822	18.8943	146.25	37.7099	142.957	3.23863	109.629	41.5022	108.638	57.9582	95.2427	30.1383	145.035	-1.21701	129.347	49.6238	61.8465
426823	18.9786	146.491	37.8382	143.219	3.42017	109.791	41.7389	108.715	58.2018	95.227	30.2479	145.287	-1.15535	129.582	49.7982	61.5833
426824	19.0624	146.733	37.9657	143.482	3.60152	109.954	41.9755	108.793	58.4453	95.2115	30.3568	145.54	-1.0939	129.818	49.9722	61.3185
426825	19.1456	146.976	38.0924	143.747	3.78268	110.118	42.212	108.873	58.6889	95.1963	30.465	145.793	-1.03267	130.054	50.1458	61.0521
426826	19.2283	147.218	38.2183	144.012	3.96366	110.281	42.4484	108.953	58.9324	95.1813	30.5724	146.047	-0.971645	130.29	50.3189	60.784
426827	19.3104	147.461	38.3434	144.278	4.14444	110.445	42.6847	109.034	59.176	95.1665	30.6792	146.301	-0.910835	130.526	50.4915	60.5142
426828	19.392	147.705	38.4677	144.546	4.32503	110.609	42.9208	109.116	59.4196	95.1521	30.7853	146.556	-0.85024	130.762	50.6637	60.2427
426829	19.4731	147.948	38.5911	144.814	4.50542	110.774	43.1569	109.199	59.6631	95.1378	30.8907	146.812	-0.789861	130.998	50.8355	59.9694
426830	19.5536	148.192	38.7138	145.084	4.68562	110.939	43.3928	109.282	59.9067	95.1239	30.9953	147.069	-0.729699	131.234	51.0067	59.6944
426831	19.6335	148.437	38.8356	145.355	4.86562	111.103	43.6286	109.367	60.1503	95.1102	31.0992	147.326	-0.669755	131.471	51.1775	59.4177
426832	19.7129	148.681	38.9566	145.626	5.04542	111.269	43.8643	109.453	60.3939	95.0968	31.2024	147.584	-0.610029	131.707	51.3478	59.1391
426833	19.7917	148.927	39.0768	145.899	5.22501	111.434	44.0998	109.54	60.6375	95.0836	31.3048	147.843	-0.550524	131.943	51.5176	58.8588
426834	19.8699	149.172	39.1961	146.173	5.40441	111.6	44.3353	109.628	60.8811	95.0708	31.4065	148.102	-0.491239	132.18	51.6869	58.5766
426835	19.9476	149.417	39.3145	146.448	5.58359	111.766	44.5705	109.716	61.1247	95.0582	31.5075	148.362	-0.432177	132.416	51.8557	58.2925
426836	20.0248	149.663	39.4321	146.724	5.76257	111.932	44.8057	109.806	61.3683	95.046	31.6077	148.623	-0.373338	132.653	52.0239	58.0066
426837	20.1014	149.91	39.5489	147.001	5.94134	112.098	45.0407	109.897	61.6119	95.034	31.7072	148.884	-0.314723	132.889	52.1917	57.7188
426838	20.1774	150.156	39.6647	147.28	6.1199	112.265	45.2756	109.989	61.8555	95.0224	31.8059	149.146	-0.256333	133.126	52.3589	57.4291
426839	20.2528	150.403	39.7797	147.559	6.29824	112.432	45.5104	110.082	62.0991	95.0111	31.9039	149.409	-0.19817	133.363	52.5256	57.1375
426840	20.3277	150.65	39.8938	147.839	6.47637	112.6	45.745	110.177	62.3427	95.0001	32.0011	149.672	-0.140235	133.599	52.6917	56.8439
426841	20.4019	150.898	40.007	148.121	6.65428	112.767	45.9795	110.272	62.5864	94.9895	32.0976	149.936	-0.0825272	133.836	52.8573	56.5484
426842	20.4757	151.146	40.1194	148.403	6.83198	112.935	46.2138	110.368	62.83	94.9792	32.1933	150.201	-0.0250493	134.073	53.0223	56.2508
426843	20.5488	151.394	40.2308	148.687	7.00945	113.103	46.448	110.466	63.0736	94.9693	32.2882	150.466	0.032198	134.31	53.1867	55.9513
426844	20.6213	151.643	40.3413	148.972	7.1867	113.272	46.682	110.565	63.3173	94.9597	32.3823	150.732	0.0892137	134.547	53.3505	55.6497
426845	20.6933	151.891	40.4509	149.257	7.36372	113.441	46.9159	110.665	63.5609	94.9505	32.4757	150.999	0.145997	134.784	53.5138	55.3461
426846	20.7647	152.14	40.5596	149.544	7.54052	113.61	47.1496	110.766	63.8046	94.9417	32.5682	151.266	0.202546	135.021	53.6765	55.0403
426847	20.8355	152.39	40.6673	149.832	7.71709	113.78	47.3832	110.869	64.0482	94.9332	32.66	151.534	0.258861	135.258	53.8385	54.7325
426848	20.9057	152.64	40.7742	150.121	7.89343	113.949	47.6165	110.972	64.2919	94.9252	32.751	151.803	0.31494	135.495	54	54.4226
426849	20.9753	152.89	40.8801	150.411	8.06954	114.12	47.8498	111.077	64.5355	94.9176	32.8412	152.072	0.370783	135.732	54.1608	54.1105
426850	21.0443	153.14	40.985	150.702	8.24541	114.29	48.0829	111.184	64.7792	94.9104	32.9306	152.342	0.426387	135.969	54.321	53.7963
426851	21.1127	153.391	41.089	150.994	8.42104	114.461	48.3158	111.291	65.0228	94.9036	33.0192	152.613	0.481754	136.207	54.4805	53.4799
426852	21.1806	153.642	41.192	151.288	8.59644	114.632	48.5485	111.4	65.2665	94.8973	33.107	152.884	0.53688	136.444	54.6394	53.1613
426853	21.2478	153.893	41.2941	151.582	8.77159	114.803	48.781	111.51	65.5101	94.8914	33.194	153.156	0.591765	136.681	54.7976	52.8404
426854	21.3144	154.144	41.3952	151.877	8.94651	114.975	49.0134	111.622	65.7538	94.886	33.2801	153.428	0.646409	136.919	54.9552	52.5173
426855	21.3805	154.396	41.4954	152.174	9.12118	115.147	49.2456	111.735	65.9975	94.8811	33.3655	153.701	0.70081	137.157	55.1121	52.192
426856	21.4459	154.648	41.5945	152.471	9.2956	115.32	49.4776	111.849	66.2411	94.8767	33.45	153.975	0.754967	137.394	55.2683	51.8643
426857	21.5107	154.901	41.6927	152.769	9.46977	115.492	49.7094	111.965	66.4848	94.8727	33.5337	154.249	0.808879	137.632	55.4237	51.5344
426858	21.5749	155.153	41.7899	153.069	9.64369	115.665	49.9411	112.083	66.7285	94.8693	33.6166	154.524	0.862546	137.87	55.5785	51.2021
426859	21.6385	155.406	41.886	153.369	9.81736	115.839	50.1725	112.201	66.9721	94.8665	33.6986	154.8	0.915966	138.107	55.7326	50.8674
426860	21.7015	155.66	41.9812	153.671	9.99077	116.013	50.4038	112.322	67.2158	94.8642	33.7798	155.076	0.969138	138.345	55.8859	50.5304
426861	21.7638	155.913	42.0754	153.974	10.1639	116.187	50.6348	112.444	67.4595	94.8625	33.8601	155.353	1.02206	138.583	56.0385	50.1909
426862	21.8256	156.167	42.1685	154.277	10.3368	116.362	50.8656	112.567	67.7032	94.8614	33.9397	155.631	1.07473	138.821	56.1903	49.8491
426863	21.8867	156.421	42.2606	154.582	10.5095	116.536	51.0962	112.692	67.9468	94.8608	34.0183	155.909	1.12716	139.059	56.3414	49.5048
426864	21.9472	156.676	42.3517	154.887	10.6818	116.712	51.3267	112.819	68.1905	94.861	34.0961	156.188	1.17933	139.297	56.4916	49.158
426865	22.0071	156.93	42.4417	155.194	10.8539	116.887	51.5569	112.947	68.4342	94.8617	34.1731	156.467	1.23125	139.535	56.6412	48.8088
426866	22.0663	157.185	42.5308	155.501	11.0258	117.063	51.7868	113.077	68.6779	94.8632	34.2491	156.747	1.28291	139.774	56.7899	48.457
426867	22.125	157.441	42.6187	155.81	11.1973	117.24	52.0166	113.209	68.9215	94.8653	34.3244	157.027	1.33432	140.012	56.9378	48.1028
426868	22.183	157.696	42.7056	156.12	11.3686	117.416	52.2461	113.342	69.1652	94.8681	34.3987	157.309	1.38548	140.25	57.0848	47.7459
426869	22.2404	157.952	42.7915	156.43	11.5396	117.594	52.4754	113.477	69.4089	94.8717	34.4722	157.59	1.43638	140.489	57.2311	47.3865
426870	22.2971	158.208	42.8763	156.742	11.7104	117.771	52.7045	113.614	69.6525	94.8761	34.5448	157.873	1.48702	140.727	57.3765	47.0246
426871	22.3532	158.464	42.96	157.054	11.8809	117.949	52.9333	113.752	69.8962	94.8812	34.6165	158.155	1.5374	140.965	57.521	46.66
426872	22.4087	158.721	43.0426	157.368	12.051	118.127	53.1618	113.893	70.1398	94.8872	34.6874	158.439	1.58753	141.204	57.6647	46.2928
426873	22.4635	158.978	43.1242	157.682	12.2209	118.306	53.3901	114.035	70.3835	94.894	34.7574	158.723	1.63739	141.443	57.8075	45.9229
426874	22.5177	159.235	43.2047	157.997	12.3905	118.485	53.6182	114.18	70.6272	94.9017	34.8264	159.007	1.68699	141.681	57.9494	45.5504
426875	22.5713	159.492	43.2841	158.314	12.5599	118.665	53.846	114.326	70.8708	94.9103	34.8946	159.292	1.73633	141.92	58.0904	45.1751
426876	22.6242	159.75	43.3623	158.631	12.7289	118.845	54.0735	114.474	71.1145	94.9199	34.9619	159.578	1.78541	142.159	58.2305	44.7972
426877	22.6764	160.008	43.4395	158.949	12.8977	119.025	54.3008	114.625	71.3581	94.9304	35.0283	159.864	1.83423	142.398	58.3697	44.4166
426878	22.7281	160.266	43.5156	159.268	13.0661	119.206	54.5278	114.777	71.6017	94.942	35.0938	160.151	1.88278	142.637	58.5079	44.0331
426879	22.779	160.524	43.5905	159.588	13.2342	119.387	54.7545	114.931	71.8454	94.9546	35.1584	160.438	1.93106	142.876	58.6452	43.647
426880	22.8294	160.783	43.6643	159.909	13.4021	119.569	54.9809	115.088	72.089	94.9684	35.222	160.726	1.97907	143.115	58.7815	43.258
426881	22.879	161.042	43.737	160.23	13.5696	119.751	55.2071	115.247	72.3326	94.9832	35.2848	161.014	2.02682	143.354	58.9168	42.8663
426882	22.9281	161.301	43.8086	160.553	13.7369	119.933	55.4329	115.407	72.5763	94.9993	35.3466	161.303	2.0743	143.593	59.0511	42.4718
426883	22.9764	161.56	43.879	160.876	13.9038	120.116	55.6584	115.571	72.8199	95.0167	35.4076	161.593	2.12151	143.832	59.1844	42.0744
426884	23.0241	161.82	43.9483	161.201	14.0704	120.299	55.8836	115.736	73.0635	95.0353	35.4676	161.882	2.16845	144.072	59.3167	41.6741
426885	23.0712	162.08	44.0165	161.526	14.2367	120.483	56.1085	115.904	73.3071	95.0553	35.5266	162.173	2.21512	144.311	59.448	41.271
426886	23.1176	162.34	44.0834	161.851	14.4027	120.667	56.3331	116.074	73.5507	95.0767	35.5848	162.464	2.26152	144.55	59.5782	40.8651
426887	23.1633	162.6	44.1493	162.178	14.5684	120.852	56.5574	116.246	73.7943	95.0996	35.642	162.755	2.30764	144.79	59.7073	40.4562
426888	23.2084	162.861	44.2139	162.506	14.7338	121.037	56.7813	116.421	74.0378	95.124	35.6983	163.047	2.3535	145.029	59.8354	40.0445
426889	23.2528	163.121	44.2774	162.834	14.8988	121.222	57.0048	116.599	74.2814	95.1501	35.7536	163.339	2.39907	145.269	59.9624	39.6298
426890	23.2966	163.382	44.3398	163.163	15.0635	121.408	57.2281	116.779	74.5249	95.1778	35.808	163.632	2.44437	145.509	60.0883	39.2122
426891	23.3396	163.643	44.4009	163.493	15.2279	121.594	57.4509	116.961	74.7685	95.2073	35.8615	163.925	2.4894	145.748	60.213	38.7916
426892	23.382	163.905	44.4609	163.824	15.392	121.781	57.6734	117.147	75.012	95.2387	35.914	164.219	2.53414	145.988	60.3366	38.3681
426893	23.4238	164.166	44.5196	164.156	15.5557	121.969	57.8956	117.335	75.2555	95.272	35.9656	164.513	2.57861	146.228	60.4591	37.9417
426894	23.4649	164.428	44.5772	164.488	15.7191	122.156	58.1173	117.525	75.499	95.3074	36.0162	164.807	2.6228	146.468	60.5804	37.5123
426895	23.5053	164.69	44.6336	164.821	15.8821	122.344	58.3387	117.719	75.7425	95.3449	36.0658	165.102	2.66671	146.708	60.7005	37.0798
426896	23.545	164.952	44.6888	165.155	16.0448	122.533	58.5596	117.915	75.986	95.3846	36.1146	165.398	2.71034	146.948	60.8194	36.6444
426897	23.584	165.215	44.7428	165.489	16.2072	122.722	58.7802	118.114	76.2294	95.4268	36.1623	165.694	2.75369	147.188	60.9371	36.206
426898	23.6224	165.477	44.7955	165.824	16.3692	122.912	59.0003	118.317	76.4729	95.4714	36.2091	165.99	2.79675	147.428	61.0536	35.7647
426899	23.6601	165.74	44.8471	166.16	16.5309	123.102	59.2201	118.522	76.7163	95.5187	36.2549	166.287	2.83954	147.668	61.1688	35.3203
426900	23.6971	166.003	44.8974	166.496	16.6922	123.293	59.4393	118.73	76.9597	95.5688	36.2997	166.584	2.88203	147.908	61.2828	34.8729
426901	23.7335	166.266	44.9465	166.833	16.8532	123.484	59.6582	118.942	77.2031	95.6218	36.3436	166.881	2.92425	148.149	61.3956	34.4225
426902	23.7691	166.53	44.9944	167.171	17.0138	123.675	59.8766	119.156	77.4464	95.6779	36.3865	167.179	2.96617	148.389	61.507	33.969
426903	23.8041	166.793	45.0411	167.509	17.1741	123.868	60.0945	119.374	77.6897	95.7374	36.4285	167.477	3.00781	148.63	61.6171	33.5126
426904	23.8384	167.057	45.0865	167.848	17.334	124.06	60.312	119.595	77.933	95.8003	36.4694	167.776	3.04917	148.87	61.7259	33.0532
426905	23.872	167.321	45.1307	168.188	17.4935	124.253	60.529	119.82	78.1763	95.8669	36.5094	168.075	3.09023	149.111	61.8334	32.5907
426906	23.9049	167.585	45.1736	168.528	17.6527	124.447	60.7455	120.048	78.4196	95.9375	36.5484	168.374	3.13101	149.351	61.9395	32.1252
426907	23.9372	167.849	45.2153	168.868	17.8115	124.641	60.9615	120.28	78.6628	96.0123	36.5864	168.674	3.1715	149.592	62.0443	31.6567
426908	23.9687	168.113	45.2558	169.209	17.9699	124.835	61.1769	120.515	78.9059	96.0915	36.6234	168.974	3.21169	149.833	62.1477	31.1853
426909	23.9996	168.378	45.295	169.551	18.1279	125.031	61.3919	120.754	79.1491	96.1755	36.6594	169.274	3.2516	150.073	62.2497	30.7108
426910	24.0297	168.643	45.3329	169.893	18.2856	125.226	61.6063	120.996	79.3922	96.2646	36.6945	169.575	3.29121	150.314	62.3502	30.2333
426911	24.0592	168.907	45.3696	170.236	18.4429	125.422	61.8202	121.243	79.6352	96.3592	36.7285	169.876	3.33053	150.555	62.4494	29.7529
426912	24.088	169.173	45.405	170.58	18.5998	125.619	62.0335	121.493	79.8782	96.4596	36.7616	170.177	3.36956	150.796	62.5471	29.2695
426913	24.1161	169.438	45.4391	170.923	18.7563	125.816	62.2462	121.748	80.1212	96.5662	36.7936	170.479	3.40829	151.037	62.6433	28.7832
426914	24.1435	169.703	45.472	171.268	18.9124	126.014	62.4583	122.006	80.3641	96.6797	36.8247	170.78	3.44673	151.278	62.7381	28.2939
426915	24.1702	169.968	45.5036	171.612	19.0682	126.212	62.6699	122.268	80.6069	96.8003	36.8548	171.083	3.48487	151.519	62.8313	27.8017
426916	24.1962	170.234	45.534	171.957	19.2235	126.411	62.8808	122.535	80.8497	96.9288	36.8838	171.385	3.52272	151.76	62.9231	27.3065
426917	24.2215	170.5	45.563	172.303	19.3785	126.61	63.0911	122.806	81.0924	97.0658	36.9119	171.688	3.56027	152.001	63.0133	26.8085
426918	24.2461	170.766	45.5908	172.648	19.533	126.81	63.3007	123.082	81.335	97.212	36.9389	171.991	3.59752	152.243	63.102	26.3076
426919	24.27	171.031	45.6173	172.995	19.6871	127.01	63.5097	123.362	81.5776	97.3682	36.965	172.294	3.63447	152.484	63.1892	25.8039
426920	24.2932	171.298	45.6425	173.341	19.8409	127.211	63.718	123.646	81.8201	97.5352	36.99	172.597	3.67112	152.726	63.2747	25.2974
426921	24.3157	171.564	45.6664	173.688	19.9942	127.413	63.9256	123.935	82.0624	97.714	37.014	172.901	3.70747	152.967	63.3587	24.788
426922	24.3375	171.83	45.6891	174.035	20.1471	127.615	64.1325	124.229	82.3047	97.9058	37.0371	173.205	3.74352	153.208	63.4411	24.2759
426923	24.3586	172.096	45.7104	174.383	20.2996	127.817	64.3386	124.528	82.5468	98.1118	37.059	173.509	3.77927	153.45	63.5219	23.761
426924	24.379	172.363	45.7305	174.731	20.4517	128.02	64.544	124.832	82.7888	98.3335	37.08	173.813	3.81472	153.692	63.601	23.2434
426925	24.3987	172.63	45.7493	175.079	20.6033	128.224	64.7487	125.141	83.0307	98.5724	37.1	174.117	3.84986	153.933	63.6785	22.7232
426926	24.4177	172.897	45.7667	175.427	20.7545	128.429	64.9525	125.455	83.2724	98.8304	37.119	174.422	3.8847	154.175	63.7544	22.2002
426927	24.436	173.163	45.7829	175.776	20.9053	128.633	65.1556	125.774	83.5139	99.1096	37.1369	174.727	3.91923	154.417	63.8285	21.6747
426928	24.4535	173.43	45.7978	176.124	21.0557	128.839	65.3578	126.099	83.7553	99.4125	37.1538	175.032	3.95346	154.659	63.901	21.1465
426929	24.4704	173.697	45.8114	176.473	21.2056	129.045	65.5593	126.429	83.9964	99.7419	37.1697	175.337	3.98739	154.9	63.9718	20.6159
426930	24.4866	173.964	45.8236	176.822	21.3551	129.251	65.7598	126.765	84.2372	100.101	37.1846	175.642	4.021	155.142	64.0408	20.0827
426931	24.5021	174.232	45.8346	177.172	21.5042	129.458	65.9594	127.107	84.4778	100.494	37.1985	175.947	4.05431	155.384	64.1081	19.5471
426932	24.5168	174.499	45.8443	177.521	21.6528	129.666	66.1582	127.454	84.7181	100.925	37.2113	176.253	4.08732	155.626	64.1737	19.009
426933	24.5308	174.766	45.8526	177.871	21.8009	129.874	66.356	127.807	84.958	101.4	37.2231	176.558	4.12001	155.869	64.2375	18.4686
426934	24.5442	175.034	45.8597	178.221	21.9487	130.083	66.5528	128.167	85.1974	101.924	37.2339	176.864	4.1524	156.111	64.2995	17.9259
426935	24.5568	175.301	45.8655	178.57	22.0959	130.293	66.7487	128.533	85.4364	102.507	37.2437	177.17	4.18447	156.353	64.3597	17.3809
426936	24.5687	175.569	45.8699	178.92	22.2427	130.503	66.9436	128.905	85.6748	103.156	37.2524	177.476	4.21624	156.595	64.4182	16.8336
426937	24.5799	175.837	45.8731	179.27	22.389	130.713	67.1374	129.283	85.9125	103.885	37.2602	177.782	4.24769	156.837	64.4748	16.2842
426938	24.5904	176.104	45.8749	179.62	22.5349	130.925	67.3302	129.668	86.1495	104.707	37.2668	178.088	4.27883	157.08	64.5296	15.7327
426939	24.6002	176.372	45.8754	179.97	22.6803	131.136	67.5219	130.06	86.3854	105.639	37.2725	178.394	4.30966	157.322	64.5826	15.1791
426940	24.6092	176.64	45.8747	180.32	22.8253	131.349	67.7125	130.459	86.6203	106.706	37.2771	178.7	4.34018	157.565	64.6337	14.6236
426941	24.6176	176.908	45.8726	180.67	22.9697	131.562	67.902	130.864	86.8537	107.935	37.2808	179.006	4.37038	157.807	64.683	14.0661
426942	24.6253	177.175	45.8692	181.02	23.1137	131.775	68.0903	131.277	87.0853	109.364	37.2833	179.312	4.40027	158.05	64.7303	13.5067
426943	24.6322	177.443	45.8645	181.37	23.2572	131.99	68.2773	131.697	87.3148	111.043	37.2849	179.619	4.42984	158.292	64.7759	12.9454
426944	24.6384	177.711	45.8585	181.719	23.4002	132.205	68.4632	132.125	87.5414	113.04	37.2854	179.925	4.4591	158.535	64.8195	12.3825
426945	24.6439	177.979	45.8512	182.069	23.5427	132.42	68.6478	132.56	87.7643	115.443	37.285	180.231	4.48804	158.778	64.8612	11.8178
426946	24.6487	178.247	45.8426	182.419	23.6848	132.636	68.8311	133.003	87.9824	118.377	37.2834	180.537	4.51667	159.02	64.901	11.2515
426947	24.6528	178.516	45.8327	182.768	23.8263	132.853	69.013	133.453	88.1937	122.016	37.2809	180.844	4.54498	159.263	64.9389	10.6837
426948	24.6561	178.784	45.8215	183.117	23.9674	133.07	69.1936	133.912	88.3958	126.602	37.2773	181.15	4.57297	159.506	64.9748	10.1144
426949	24.6588	179.052	45.8089	183.466	24.1079	133.288	69.3728	134.379	88.5845	132.466	37.2727	181.456	4.60064	159.749	65.0088	9.54368
426950	24.6607	179.32	45.7951	183.815	24.248	133.507	69.5506	134.854	88.7538	140.03	37.2671	181.762	4.628	159.992	65.0409	8.97163
426951	24.6619	179.588	45.78	184.164	24.3875	133.726	69.7269	135.337	88.8948	149.744	37.2604	182.068	4.65503	160.235	65.071	8.39831
426952	24.6624	179.856	45.7636	184.513	24.5265	133.946	69.9017	135.829	88.9955	161.832	37.2527	182.374	4.68174	160.478	65.0992	7.8238
426953	24.6622	180.124	45.7459	184.861	24.665	134.167	70.0749	136.33	89.043	175.832	37.244	182.68	4.70814	160.721	65.1253	7.24819
426954	24.6613	180.392	45.7269	185.209	24.803	134.388	70.2465	136.84	89.0294	190.333	37.2343	182.986	4.73421	160.964	65.1496	6.67154
426955	24.6597	180.66	45.7066	185.557	24.9405	134.609	70.4165	137.358	88.9573	203.619	37.2235	183.291	4.75996	161.207	65.1718	6.09393
426956	24.6573	180.928	45.685	185.904	25.0774	134.832	70.5847	137.886	88.8375	214.676	37.2118	183.597	4.78539	161.45	65.192	5.51545
426957	24.6543	181.196	45.6621	186.251	25.2139	135.055	70.7513	138.423	88.6828	223.401	37.199	183.903	4.8105	161.693	65.2103	4.93617
426958	24.6505	181.464	45.6379	186.598	25.3497	135.279	70.9161	138.97	88.5041	230.166	37.1851	184.208	4.83528	161.937	65.2266	4.35618
426959	24.646	181.732	45.6125	186.945	25.4851	135.503	71.0791	139.526	88.309	235.425	37.1703	184.513	4.85974	162.18	65.2408	3.77555
426960	24.6408	182	45.5857	187.291	25.6199	135.728	71.2402	140.092	88.1025	239.563	37.1544	184.818	4.88388	162.423	65.2531	3.19437
426961	24.6349	182.268	45.5577	187.637	25.7541	135.954	71.3995	140.668	87.8879	242.869	37.1375	185.123	4.90769	162.667	65.2634	2.61272
426962	24.6283	182.536	45.5284	187.982	25.8879	136.18	71.5567	141.254	87.6676	245.554	37.1196	185.428	4.93118	162.91	65.2716	2.03069
426963	24.6209	182.804	45.4978	188.327	26.021	136.407	71.7119	141.85	87.4429	247.766	37.1007	185.732	4.95434	163.154	65.2779	1.44835
426964	24.6129	183.072	45.466	188.671	26.1536	136.635	71.8651	142.457	87.215	249.615	37.0808	186.037	4.97717	163.397	65.2821	0.865794
426965	24.6041	183.34	45.4329	189.015	26.2857	136.863	72.0162	143.073	86.9845	251.178	37.0598	186.341	4.99968	163.641	65.2843	0.283105
426966	24.5946	183.608	45.3985	189.359	26.4171	137.092	72.165	143.701	86.752	252.514	37.0378	186.645	5.02186	163.884	65.2845	359.7
426967	24.5844	183.875	45.3628	189.702	26.5481	137.322	72.3117	144.339	86.518	253.668	37.0149	186.949	5.04371	164.128	65.2827	359.118
426968	24.5735	184.143	45.3259	190.045	26.6784	137.552	72.4561	144.987	86.2826	254.673	36.9909	187.252	5.06524	164.371	65.2789	358.535
426969	24.5619	184.411	45.2878	190.387	26.8082	137.783	72.5981	145.647	86.0462	255.555	36.9659	187.556	5.08644	164.615	65.273	357.953
426970	24.5496	184.678	45.2483	190.729	26.9374	138.014	72.7378	146.317	85.8089	256.334	36.9399	187.859	5.10731	164.859	65.2652	357.371
426971	24.5365	184.946	45.2076	191.07	27.066	138.247	72.875	146.998	85.5709	257.026	36.9129	188.162	5.12784	165.103	65.2554	356.789
426972	24.5228	185.213	45.1657	191.41	27.194	138.48	73.0096	147.69	85.3322	257.645	36.8848	188.465	5.14806	165.346	65.2435	356.208
426973	24.5083	185.48	45.1225	191.75	27.3215	138.713	73.1417	148.393	85.0931	258.202	36.8558	188.767	5.16793	165.59	65.2296	355.627
426974	24.4932	185.748	45.0781	192.09	27.4483	138.948	73.2712	149.108	84.8534	258.704	36.8258	189.069	5.18748	165.834	65.2138	355.047
426975	24.4773	186.015	45.0325	192.428	27.5746	139.183	73.398	149.834	84.6134	259.158	36.7948	189.371	5.2067	166.078	65.1959	354.467
426976	24.4607	186.282	44.9856	192.767	27.7002	139.418	73.522	150.57	84.373	259.572	36.7627	189.673	5.22559	166.322	65.1761	353.889
426977	24.4434	186.549	44.9375	193.104	27.8253	139.655	73.6432	151.318	84.1323	259.95	36.7297	189.974	5.24415	166.566	65.1543	353.311
426978	24.4255	186.816	44.8881	193.441	27.9497	139.892	73.7615	152.077	83.8913	260.296	36.6957	190.275	5.26237	166.81	65.1305	352.734
426979	24.4068	187.083	44.8376	193.777	28.0736	140.13	73.8768	152.847	83.6501	260.613	36.6607	190.575	5.28026	167.054	65.1047	352.158
426980	24.3874	187.349	44.7858	194.113	28.1968	140.368	73.9892	153.629	83.4087	260.905	36.6247	190.876	5.29782	167.298	65.0769	351.584
426981	24.3672	187.616	44.7328	194.448	28.3194	140.607	74.0984	154.421	83.1671	261.175	36.5877	191.176	5.31504	167.542	65.0472	351.01
426982	24.3464	187.882	44.6786	194.782	28.4413	140.847	74.2046	155.224	82.9253	261.424	36.5497	191.475	5.33194	167.786	65.0155	350.438
426983	24.3249	188.149	44.6232	195.115	28.5627	141.087	74.3075	156.038	82.6834	261.655	36.5108	191.775	5.34849	168.03	64.9819	349.867
426984	24.3027	188.415	44.5666	195.448	28.6834	141.328	74.4071	156.863	82.4414	261.87	36.4708	192.074	5.36472	168.275	64.9464	349.297
426985	24.2798	188.681	44.5088	195.78	28.8035	141.57	74.5035	157.698	82.1992	262.07	36.4299	192.372	5.38061	168.519	64.9089	348.729
426986	24.2562	188.947	44.4498	196.112	28.9229	141.813	74.5964	158.543	81.9569	262.256	36.388	192.67	5.39616	168.763	64.8695	348.163
426987	24.2319	189.213	44.3896	196.442	29.0417	142.056	74.6859	159.399	81.7145	262.429	36.3451	192.968	5.41138	169.007	64.8281	347.598
426988	24.2069	189.479	44.3282	196.772	29.1598	142.3	74.7718	160.265	81.472	262.591	36.3013	193.266	5.42626	169.252	64.7849	347.034
426989	24.1811	189.744	44.2657	197.101	29.2773	142.545	74.8542	161.14	81.2294	262.743	36.2565	193.563	5.44081	169.496	64.7398	346.473
426990	24.1547	190.01	44.202	197.429	29.3942	142.79	74.933	162.025	80.9868	262.885	36.2107	193.859	5.45502	169.74	64.6928	345.913
426991	24.1276	190.275	44.1371	197.757	29.5104	143.036	75.008	162.919	80.7441	263.018	36.1639	194.156	5.4689	169.985	64.6439	345.355
426992	24.0998	190.54	44.071	198.083	29.6259	143.283	75.0793	163.821	80.5013	263.143	36.1162	194.452	5.48244	170.229	64.5932	344.799
426993	24.0713	190.805	44.0038	198.409	29.7407	143.53	75.1468	164.733	80.2584	263.261	36.0676	194.747	5.49564	170.474	64.5406	344.245
426994	24.0421	191.07	43.9355	198.734	29.8549	143.778	75.2105	165.652	80.0155	263.371	36.0179	195.042	5.5085	170.718	64.4862	343.693
426995	24.0123	191.335	43.866	199.058	29.9684	144.027	75.2702	166.579	79.7725	263.475	35.9673	195.337	5.52103	170.963	64.43	343.143
426996	23.9817	191.6	43.7953	199.381	30.0812	144.276	75.326	167.514	79.5295	263.573	35.9158	195.631	5.53322	171.207	64.3719	342.596
426997	23.9504	191.864	43.7235	199.704	30.1934	144.526	75.3778	168.455	79.2865	263.665	35.8633	195.924	5.54507	171.452	64.312	342.05
426998	23.9185	192.128	43.6506	200.025	30.3048	144.777	75.4256	169.403	79.0434	263.752	35.8099	196.218	5.55658	171.696	64.2504	341.507
426999	23.8859	192.392	43.5766	200.346	30.4156	145.029	75.4693	170.357	78.8003	263.833	35.7555	196.51	5.56776	171.941	64.1869	340.966
427000	23.8525	192.656	43.5014	200.665	30.5256	145.281	75.5089	171.317	78.5571	263.911	35.7002	196.803	5.57859	172.185	64.1217	340.428
427001	23.8185	192.92	43.4252	200.984	30.635	145.534	75.5443	172.281	78.3139	263.983	35.6439	197.095	5.58909	172.43	64.0548	339.892
427002	23.7838	193.184	43.3478	201.302	30.7437	145.788	75.5755	173.25	78.0707	264.052	35.5868	197.386	5.59924	172.674	63.9861	339.358
427003	23.7484	193.447	43.2693	201.619	30.8516	146.042	75.6026	174.223	77.8274	264.117	35.5286	197.677	5.60906	172.919	63.9157	338.827
427004	23.7124	193.71	43.1897	201.935	30.9589	146.297	75.6254	175.2	77.5841	264.179	35.4696	197.967	5.61854	173.164	63.8436	338.298
427005	23.6757	193.973	43.109	202.25	31.0654	146.553	75.6439	176.179	77.3408	264.236	35.4096	198.257	5.62768	173.408	63.7698	337.772
427006	23.6382	194.236	43.0273	202.564	31.1712	146.809	75.6582	177.16	77.0975	264.291	35.3487	198.546	5.63648	173.653	63.6943	337.249
427007	23.6001	194.499	42.9444	202.877	31.2763	147.066	75.6682	178.144	76.8541	264.343	35.2869	198.835	5.64493	173.898	63.6172	336.728
427008	23.5614	194.761	42.8605	203.19	31.3806	147.324	75.6739	179.128	76.6107	264.392	35.2242	199.123	5.65305	174.142	63.5384	336.21
427009	23.5219	195.023	42.7755	203.501	31.4842	147.583	75.6754	180.113	76.3673	264.438	35.1605	199.411	5.66083	174.387	63.458	335.695
427010	23.4818	195.285	42.6895	203.811	31.5871	147.842	75.6725	181.097	76.1239	264.481	35.096	199.698	5.66826	174.632	63.3759	335.182
427011	23.441	195.547	42.6024	204.121	31.6893	148.101	75.6653	182.081	75.8805	264.522	35.0305	199.985	5.67536	174.877	63.2923	334.672
427012	23.3995	195.809	42.5142	204.429	31.7907	148.362	75.6539	183.064	75.637	264.561	34.9641	200.271	5.68211	175.121	63.2071	334.165
427013	23.3574	196.07	42.425	204.736	31.8913	148.623	75.6381	184.044	75.3935	264.598	34.8969	200.557	5.68853	175.366	63.1202	333.661
427014	23.3146	196.332	42.3347	205.043	31.9912	148.885	75.6182	185.023	75.1501	264.632	34.8287	200.842	5.6946	175.611	63.0319	333.159
427015	23.2711	196.593	42.2434	205.348	32.0904	149.148	75.5939	185.998	74.9066	264.664	34.7597	201.126	5.70033	175.856	62.942	332.661
427016	23.227	196.853	42.1511	205.652	32.1887	149.411	75.5655	186.97	74.6631	264.695	34.6897	201.41	5.70571	176.101	62.8506	332.165
427017	23.1822	197.114	42.0578	205.956	32.2864	149.675	75.5328	187.937	74.4196	264.724	34.6189	201.694	5.71076	176.345	62.7576	331.672
427018	23.1367	197.374	41.9634	206.258	32.3832	149.94	75.496	188.9	74.176	264.75	34.5472	201.976	5.71547	176.59	62.6632	331.182
427019	23.0906	197.634	41.8681	206.559	32.4793	150.205	75.455	189.858	73.9325	264.776	34.4746	202.259	5.71983	176.835	62.5673	330.695
427020	23.0438	197.894	41.7717	206.86	32.5746	150.471	75.4099	190.81	73.6889	264.8	34.4012	202.54	5.72385	177.08	62.4699	330.211
427021	22.9963	198.154	41.6743	207.159	32.6691	150.738	75.3608	191.756	73.4454	264.822	34.3268	202.821	5.72753	177.325	62.3711	329.73
427022	22.9482	198.413	41.576	207.457	32.7628	151.005	75.3077	192.695	73.2018	264.842	34.2516	203.102	5.73087	177.57	62.2708	329.252
427023	22.8995	198.672	41.4767	207.754	32.8558	151.273	75.2505	193.627	72.9583	264.862	34.1756	203.382	5.73386	177.815	62.1691	328.777
427024	22.8501	198.931	41.3763	208.05	32.9479	151.542	75.1894	194.552	72.7147	264.88	34.0986	203.661	5.73651	178.059	62.0661	328.305
427025	22.8	199.19	41.275	208.345	33.0393	151.811	75.1245	195.468	72.4711	264.897	34.0209	203.94	5.73882	178.304	61.9616	327.836
427026	22.7493	199.448	41.1728	208.639	33.1298	152.081	75.0557	196.377	72.2275	264.912	33.9422	204.218	5.74079	178.549	61.8558	327.37
427027	22.6979	199.707	41.0696	208.932	33.2196	152.352	74.9831	197.277	71.9839	264.926	33.8627	204.495	5.74242	178.794	61.7486	326.907
427028	22.6459	199.965	40.9654	209.224	33.3085	152.623	74.9068	198.167	71.7403	264.94	33.7824	204.772	5.7437	179.039	61.6401	326.447
427029	22.5933	200.222	40.8603	209.515	33.3967	152.895	74.8268	199.049	71.4967	264.952	33.7012	205.048	5.74464	179.284	61.5303	325.99
427030	22.54	200.48	40.7542	209.805	33.484	153.167	74.7432	199.921	71.2531	264.963	33.6192	205.324	5.74523	179.529	61.4192	325.536
427031	22.486	200.737	40.6472	210.094	33.5704	153.441	74.6561	200.783	71.0095	264.973	33.5364	205.599	5.74549	179.774	61.3067	325.085
427032	22.4314	200.994	40.5393	210.381	33.6561	153.715	74.5654	201.636	70.7659	264.982	33.4527	205.874	5.7454	180.018	61.193	324.637
427033	22.3762	201.25	40.4304	210.668	33.7409	153.989	74.4714	202.477	70.5222	264.99	33.3682	206.147	5.74497	180.263	61.0781	324.192
427034	22.3204	201.507	40.3206	210.953	33.8249	154.264	74.3739	203.309	70.2786	264.997	33.2829	206.42	5.7442	180.508	60.9619	323.75
427035	22.2639	201.763	40.2099	211.238	33.9081	154.54	74.2732	204.13	70.035	265.004	33.1967	206.693	5.74308	180.753	60.8445	323.311
427036	22.2067	202.019	40.0983	211.521	33.9904	154.817	74.1692	204.94	69.7914	265.009	33.1098	206.965	5.74162	180.998	60.7258	322.875
427037	22.149	202.274	39.9858	211.803	34.0719	155.094	74.062	205.74	69.5478	265.014	33.022	207.236	5.73982	181.243	60.606	322.442
427038	22.0906	202.53	39.8724	212.084	34.1525	155.372	73.9517	206.528	69.3041	265.018	32.9334	207.506	5.73768	181.488	60.485	322.012
427039	22.0316	202.785	39.7582	212.364	34.2323	155.65	73.8383	207.306	69.0605	265.021	32.844	207.776	5.73519	181.732	60.3628	321.585
427040	21.9719	203.04	39.643	212.644	34.3113	155.929	73.722	208.072	68.8169	265.024	32.7539	208.046	5.73237	181.977	60.2394	321.161
427041	21.9117	203.294	39.527	212.922	34.3893	156.208	73.6027	208.827	68.5732	265.026	32.6629	208.314	5.72919	182.222	60.115	320.74
427042	21.8508	203.548	39.4101	213.198	34.4665	156.489	73.4805	209.571	68.3296	265.026	32.5711	208.582	5.72568	182.467	59.9894	320.322
427043	21.7893	203.802	39.2923	213.474	34.5429	156.769	73.3556	210.304	68.086	265.027	32.4785	208.849	5.72183	182.712	59.8627	319.906
427044	21.7272	204.056	39.1737	213.749	34.6183	157.051	73.2279	211.026	67.8423	265.027	32.3852	209.116	5.71763	182.957	59.7349	319.494
427045	21.6644	204.309	39.0542	214.023	34.6929	157.333	73.0976	211.737	67.5987	265.026	32.2911	209.382	5.71309	183.202	59.606	319.084
427046	21.6011	204.562	38.9339	214.295	34.7666	157.615	72.9646	212.436	67.3551	265.024	32.1962	209.647	5.70821	183.446	59.4761	318.678
427047	21.5371	204.815	38.8127	214.567	34.8395	157.899	72.8291	213.125	67.1115	265.022	32.1005	209.912	5.70299	183.691	59.3451	318.274
427048	21.4725	205.068	38.6907	214.837	34.9114	158.183	72.6911	213.802	66.8678	265.02	32.0041	210.176	5.69742	183.936	59.213	317.873
427049	21.4074	205.32	38.5679	215.106	34.9825	158.467	72.5506	214.469	66.6242	265.017	31.9069	210.439	5.69152	184.181	59.08	317.476
427050	21.3416	205.572	38.4443	215.375	35.0527	158.752	72.4078	215.125	66.3806	265.013	31.8089	210.702	5.68527	184.425	58.9459	317.08
427051	21.2752	205.823	38.3198	215.642	35.1219	159.037	72.2627	215.769	66.137	265.009	31.7102	210.964	5.67868	184.67	58.8108	316.688
427052	21.2082	206.075	38.1946	215.908	35.1903	159.323	72.1153	216.404	65.8933	265.004	31.6107	211.225	5.67175	184.915	58.6748	316.299
427053	21.1406	206.326	38.0685	216.173	35.2578	159.61	71.9656	217.027	65.6497	264.999	31.5105	211.486	5.66448	185.16	58.5378	315.912
427054	21.0724	206.576	37.9417	216.437	35.3244	159.897	71.8139	217.641	65.4061	264.993	31.4095	211.746	5.65686	185.404	58.3998	315.528
427055	21.0036	206.827	37.814	216.7	35.39	160.185	71.66	218.243	65.1625	264.987	31.3078	212.005	5.64891	185.649	58.2609	315.147
427056	20.9342	207.077	37.6856	216.962	35.4547	160.473	71.5041	218.836	64.9189	264.98	31.2054	212.263	5.64062	185.894	58.121	314.768
427057	20.8642	207.327	37.5564	217.222	35.5186	160.762	71.3462	219.418	64.6753	264.973	31.1022	212.521	5.63198	186.138	57.9803	314.392
427058	20.7936	207.576	37.4264	217.482	35.5815	161.051	71.1863	219.991	64.4317	264.966	30.9983	212.779	5.62301	186.383	57.8386	314.019
427059	20.7225	207.825	37.2956	217.741	35.6435	161.341	71.0246	220.554	64.1881	264.958	30.8937	213.035	5.61369	186.628	57.696	313.649
427060	20.6507	208.074	37.1641	217.998	35.7045	161.631	70.861	221.107	63.9445	264.95	30.7884	213.291	5.60404	186.872	57.5526	313.281
427061	20.5784	208.323	37.0318	218.255	35.7647	161.922	70.6956	221.65	63.7009	264.941	30.6823	213.546	5.59404	187.117	57.4083	312.916
427062	20.5055	208.571	36.8988	218.51	35.8238	162.214	70.5285	222.184	63.4573	264.932	30.5755	213.8	5.58371	187.362	57.2631	312.553
427063	20.432	208.819	36.7651	218.765	35.8821	162.506	70.3596	222.709	63.2137	264.923	30.468	214.054	5.57303	187.606	57.1171	312.194
427064	20.3579	209.067	36.6305	219.018	35.9394	162.798	70.1891	223.224	62.9701	264.913	30.3599	214.307	5.56202	187.851	56.9702	311.836
427065	20.2832	209.314	36.4953	219.27	35.9958	163.091	70.0169	223.731	62.7265	264.903	30.251	214.56	5.55067	188.095	56.8226	311.481
427066	20.208	209.561	36.3593	219.522	36.0512	163.384	69.8432	224.229	62.4829	264.892	30.1414	214.812	5.53898	188.34	56.6741	311.129
427067	20.1322	209.808	36.2227	219.772	36.1057	163.678	69.668	224.718	62.2394	264.881	30.0311	215.063	5.52695	188.584	56.5248	310.779
427068	20.0559	210.054	36.0853	220.021	36.1593	163.972	69.4912	225.198	61.9958	264.87	29.9202	215.313	5.51458	188.829	56.3748	310.432
427069	19.9789	210.3	35.9472	220.269	36.2118	164.267	69.313	225.67	61.7522	264.858	29.8085	215.563	5.50188	189.073	56.2239	310.087
427070	19.9014	210.546	35.8083	220.516	36.2635	164.563	69.1333	226.134	61.5087	264.847	29.6962	215.812	5.48883	189.318	56.0723	309.745
427071	19.8234	210.791	35.6688	220.762	36.3141	164.858	68.9523	226.59	61.2651	264.834	29.5832	216.06	5.47546	189.562	55.92	309.405
427072	19.7448	211.036	35.5286	221.007	36.3638	165.154	68.7699	227.038	61.0216	264.822	29.4695	216.308	5.46174	189.806	55.7669	309.067
427073	19.6656	211.281	35.3877	221.251	36.4126	165.451	68.5861	227.478	60.778	264.809	29.3552	216.555	5.44768	190.051	55.613	308.732
427074	19.5859	211.525	35.2461	221.494	36.4603	165.748	68.4011	227.911	60.5345	264.796	29.2402	216.801	5.43329	190.295	55.4585	308.399
427075	19.5056	211.769	35.1039	221.736	36.5072	166.045	68.2149	228.335	60.291	264.783	29.1245	217.047	5.41857	190.539	55.3032	308.069
427076	19.4247	212.013	34.9609	221.977	36.553	166.343	68.0274	228.753	60.0474	264.769	29.0082	217.291	5.4035	190.784	55.1472	307.741
427077	19.3433	212.256	34.8173	222.217	36.5978	166.641	67.8387	229.163	59.8039	264.755	28.8912	217.536	5.38811	191.028	54.9906	307.415
427078	19.2614	212.5	34.6731	222.456	36.6417	166.94	67.6489	229.567	59.5604	264.741	28.7736	217.779	5.37237	191.272	54.8332	307.091
427079	19.1789	212.742	34.5282	222.694	36.6846	167.239	67.458	229.963	59.3169	264.727	28.6553	218.022	5.3563	191.516	54.6752	306.77
427080	19.0959	212.985	34.3826	222.931	36.7265	167.538	67.2659	230.352	59.0734	264.712	28.5364	218.264	5.3399	191.76	54.5166	306.451
427081	19.0123	213.227	34.2364	223.167	36.7674	167.838	67.0728	230.735	58.8299	264.697	28.4169	218.506	5.32316	192.004	54.3572	306.134
427082	18.9282	213.469	34.0895	223.401	36.8074	168.138	66.8786	231.112	58.5864	264.682	28.2967	218.746	5.30609	192.249	54.1972	305.82
427083	18.8436	213.71	33.942	223.635	36.8463	168.439	66.6834	231.481	58.3429	264.667	28.1759	218.987	5.28869	192.493	54.0366	305.507
427084	18.7584	213.951	33.7939	223.868	36.8843	168.74	66.4872	231.845	58.0994	264.651	28.0544	219.226	5.27095	192.737	53.8754	305.197
427085	18.6727	214.192	33.6452	224.1	36.9212	169.041	66.2901	232.202	57.8559	264.635	27.9324	219.465	5.25288	192.981	53.7136	304.888
427086	18.5864	214.432	33.4958	224.331	36.9572	169.342	66.092	232.554	57.6125	264.619	27.8097	219.703	5.23447	193.225	53.5511	304.582
427087	18.4996	214.673	33.3458	224.561	36.9921	169.644	65.8929	232.899	57.369	264.602	27.6864	219.94	5.21573	193.469	53.388	304.278
427088	18.4124	214.912	33.1952	224.79	37.0261	169.946	65.693	233.238	57.1255	264.586	27.5626	220.177	5.19667	193.712	53.2244	303.976
427089	18.3245	215.152	33.044	225.018	37.0591	170.249	65.4922	233.572	56.8821	264.569	27.4381	220.413	5.17727	193.956	53.0602	303.676
427090	18.2362	215.391	32.8922	225.245	37.091	170.552	65.2905	233.901	56.6386	264.552	27.313	220.649	5.15754	194.2	52.8954	303.378
427091	18.1473	215.63	32.7398	225.472	37.122	170.855	65.088	234.223	56.3952	264.535	27.1873	220.883	5.13747	194.444	52.73	303.082
427092	18.058	215.868	32.5869	225.697	37.1519	171.158	64.8847	234.541	56.1518	264.517	27.061	221.117	5.11708	194.688	52.5641	302.788
427093	17.9681	216.106	32.4333	225.921	37.1808	171.462	64.6806	234.853	55.9084	264.5	26.9341	221.351	5.09636	194.931	52.3976	302.496
427094	17.8777	216.344	32.2792	226.144	37.2088	171.765	64.4757	235.16	55.665	264.482	26.8066	221.584	5.07531	195.175	52.2306	302.206
427095	17.7868	216.581	32.1244	226.367	37.2356	172.07	64.2701	235.462	55.4216	264.464	26.6786	221.816	5.05393	195.419	52.063	301.918
427096	17.6954	216.818	31.9691	226.588	37.2615	172.374	64.0637	235.759	55.1782	264.445	26.5499	222.047	5.03222	195.662	51.895	301.631
427097	17.6034	217.055	31.8133	226.809	37.2864	172.678	63.8566	236.052	54.9348	264.427	26.4207	222.278	5.01018	195.906	51.7264	301.347
427098	17.511	217.292	31.6568	227.028	37.3103	172.983	63.6488	236.339	54.6914	264.408	26.291	222.508	4.98782	196.149	51.5573	301.064
427099	17.4181	217.528	31.4999	227.247	37.3331	173.288	63.4403	236.622	54.448	264.389	26.1606	222.737	4.96513	196.393	51.3877	300.783
427100	17.3247	217.763	31.3423	227.465	37.3549	173.594	63.2311	236.9	54.2047	264.37	26.0297	222.966	4.94211	196.636	51.2176	300.504
427101	17.2308	217.999	31.1843	227.682	37.3757	173.899	63.0213	237.174	53.9613	264.351	25.8982	223.194	4.91877	196.88	51.047	300.227
427102	17.1363	218.234	31.0256	227.898	37.3955	174.205	62.8108	237.444	53.718	264.332	25.7662	223.422	4.8951	197.123	50.876	299.952
427103	17.0414	218.469	30.8665	228.113	37.4142	174.511	62.5997	237.709	53.4746	264.312	25.6336	223.649	4.8711	197.367	50.7044	299.678
427104	16.946	218.703	30.7068	228.327	37.4319	174.816	62.388	237.97	53.2313	264.293	25.5005	223.875	4.84678	197.61	50.5324	299.406
427105	16.8502	218.937	30.5465	228.54	37.4486	175.123	62.1757	238.227	52.9879	264.273	25.3668	224.1	4.82214	197.853	50.36	299.136
427106	16.7538	219.171	30.3858	228.752	37.4643	175.429	61.9628	238.48	52.7446	264.253	25.2326	224.325	4.79717	198.096	50.187	298.868
427107	16.657	219.404	30.2245	228.964	37.4789	175.735	61.7494	238.729	52.5013	264.232	25.0979	224.549	4.77187	198.339	50.0137	298.601
427108	16.5596	219.637	30.0627	229.174	37.4925	176.042	61.5353	238.974	52.258	264.212	24.9626	224.773	4.74626	198.583	49.8399	298.336
427109	16.4618	219.87	29.9004	229.384	37.5051	176.349	61.3208	239.215	52.0147	264.191	24.8268	224.996	4.72032	198.826	49.6656	298.072
427110	16.3636	220.102	29.7376	229.593	37.5166	176.655	61.1057	239.453	51.7715	264.171	24.6904	225.218	4.69406	199.069	49.491	297.81
427111	16.2648	220.334	29.5743	229.801	37.5271	176.962	60.8901	239.687	51.5282	264.15	24.5535	225.44	4.66748	199.312	49.3159	297.55
427112	16.1656	220.566	29.4105	230.008	37.5366	177.269	60.6739	239.917	51.2849	264.129	24.4161	225.661	4.64058	199.555	49.1404	297.291
427113	16.0659	220.797	29.2462	230.215	37.5451	177.577	60.4573	240.144	51.0417	264.107	24.2782	225.881	4.61336	199.798	48.9645	297.034
427114	15.9657	221.029	29.0814	230.42	37.5525	177.884	60.2402	240.367	50.7985	264.086	24.1398	226.101	4.58582	200.04	48.7882	296.778
427115	15.8651	221.259	28.9161	230.625	37.5589	178.191	60.0226	240.587	50.5552	264.065	24.0009	226.32	4.55796	200.283	48.6114	296.524
427116	15.764	221.49	28.7503	230.828	37.5642	178.498	59.8045	240.804	50.312	264.043	23.8614	226.539	4.52978	200.526	48.4343	296.272
427117	15.6625	221.72	28.584	231.031	37.5685	178.806	59.586	241.018	50.0688	264.021	23.7215	226.757	4.50129	200.769	48.2569	296.021
427118	15.5605	221.949	28.4173	231.233	37.5718	179.113	59.367	241.228	49.8256	263.999	23.581	226.974	4.47247	201.011	48.079	295.771
427119	15.4581	222.179	28.2501	231.435	37.574	179.42	59.1476	241.435	49.5824	263.977	23.4401	227.191	4.44334	201.254	47.9007	295.523
427120	15.3552	222.408	28.0824	231.635	37.5752	179.728	58.9278	241.639	49.3392	263.955	23.2987	227.407	4.41389	201.496	47.7221	295.276
427121	15.2518	222.636	27.9143	231.835	37.5754	180.035	58.7075	241.84	49.096	263.932	23.1567	227.622	4.38413	201.739	47.5432	295.031
427122	15.148	222.865	27.7457	232.034	37.5745	180.343	58.4869	242.038	48.8529	263.91	23.0143	227.837	4.35405	201.982	47.3638	294.787
427123	15.0438	223.093	27.5767	232.232	37.5726	180.65	58.2658	242.234	48.6097	263.887	22.8714	228.051	4.32366	202.224	47.1842	294.545
427124	14.9391	223.321	27.4072	232.429	37.5697	180.957	58.0444	242.426	48.3666	263.864	22.7281	228.265	4.29295	202.466	47.0041	294.303
427125	14.8339	223.548	27.2372	232.625	37.5657	181.265	57.8225	242.616	48.1234	263.841	22.5842	228.478	4.26193	202.709	46.8237	294.064
427126	14.7284	223.775	27.0668	232.821	37.5607	181.572	57.6003	242.803	47.8803	263.818	22.4399	228.69	4.2306	202.951	46.643	293.825
427127	14.6224	224.002	26.896	233.016	37.5546	181.879	57.3777	242.987	47.6372	263.795	22.2951	228.902	4.19896	203.193	46.462	293.588
427128	14.5159	224.228	26.7248	233.21	37.5476	182.186	57.1548	243.169	47.3941	263.771	22.1499	229.114	4.167	203.435	46.2806	293.353
427129	14.4091	224.454	26.5531	233.404	37.5394	182.494	56.9315	243.348	47.151	263.748	22.0041	229.324	4.13474	203.677	46.0989	293.118
427130	14.3018	224.68	26.3809	233.596	37.5303	182.801	56.7078	243.524	46.908	263.724	21.858	229.534	4.10216	203.919	45.9169	292.885
427131	14.1941	224.905	26.2084	233.788	37.5201	183.108	56.4838	243.698	46.6649	263.7	21.7113	229.744	4.06927	204.161	45.7346	292.653
427132	14.0859	225.131	26.0354	233.979	37.5089	183.415	56.2595	243.87	46.4218	263.676	21.5643	229.953	4.03608	204.403	45.552	292.423
427133	13.9773	225.355	25.862	234.169	37.4967	183.721	56.0348	244.039	46.1788	263.652	21.4167	230.161	4.00257	204.645	45.369	292.193
427134	13.8683	225.58	25.6882	234.359	37.4834	184.028	55.8099	244.206	45.9358	263.628	21.2687	230.369	3.96876	204.887	45.1858	291.965
427135	13.7589	225.804	25.514	234.548	37.4691	184.334	55.5846	244.37	45.6928	263.604	21.1203	230.576	3.93465	205.129	45.0023	291.738
427136	13.6491	226.028	25.3394	234.736	37.4537	184.641	55.359	244.533	45.4498	263.579	20.9714	230.783	3.90022	205.371	44.8185	291.512
427137	13.5389	226.251	25.1643	234.923	37.4374	184.947	55.1331	244.693	45.2068	263.555	20.8221	230.989	3.86549	205.612	44.6344	291.288
427138	13.4282	226.475	24.9889	235.11	37.42	185.253	54.9069	244.851	44.9638	263.53	20.6724	231.194	3.83046	205.854	44.45	291.065
427139	13.3171	226.697	24.8131	235.295	37.4016	185.559	54.6804	245.006	44.7208	263.505	20.5222	231.399	3.79512	206.096	44.2653	290.842
427140	13.2057	226.92	24.6368	235.481	37.3821	185.864	54.4537	245.16	44.4778	263.48	20.3716	231.603	3.75948	206.337	44.0804	290.621
427141	13.0938	227.142	24.4602	235.665	37.3617	186.17	54.2266	245.311	44.2349	263.455	20.2206	231.807	3.72353	206.579	43.8952	290.401
427142	12.9815	227.364	24.2832	235.849	37.3402	186.475	53.9993	245.461	43.992	263.43	20.0692	232.011	3.68729	206.82	43.7097	290.182
427143	12.8689	227.586	24.1059	236.032	37.3177	186.78	53.7717	245.608	43.749	263.404	19.9173	232.213	3.65074	207.061	43.524	289.965
427144	12.7558	227.807	23.9281	236.214	37.2942	187.085	53.5439	245.754	43.5061	263.379	19.765	232.415	3.61389	207.303	43.338	289.748
427145	12.6423	228.028	23.7499	236.396	37.2696	187.39	53.3158	245.898	43.2632	263.353	19.6123	232.617	3.57674	207.544	43.1518	289.532
427146	12.5285	228.249	23.5714	236.577	37.244	187.694	53.0874	246.039	43.0204	263.327	19.4592	232.818	3.5393	207.785	42.9653	289.318
427147	12.4142	228.469	23.3925	236.757	37.2175	187.999	52.8588	246.179	42.7775	263.302	19.3057	233.018	3.50155	208.026	42.7786	289.104
427148	12.2996	228.689	23.2133	236.937	37.1899	188.302	52.63	246.317	42.5346	263.276	19.1518	233.219	3.46351	208.267	42.5916	288.892
427149	12.1845	228.909	23.0337	237.116	37.1613	188.606	52.4009	246.453	42.2918	263.25	18.9975	233.418	3.42517	208.508	42.4044	288.68
427150	12.0691	229.128	22.8537	237.294	37.1316	188.91	52.1715	246.588	42.049	263.223	18.8428	233.617	3.38653	208.749	42.217	288.47
427151	11.9534	229.347	22.6733	237.471	37.101	189.213	51.942	246.72	41.8061	263.197	18.6877	233.815	3.3476	208.99	42.0293	288.261
427152	11.8372	229.566	22.4927	237.649	37.0694	189.516	51.7122	246.851	41.5633	263.171	18.5322	234.013	3.30837	209.231	41.8414	288.052
427153	11.7206	229.785	22.3116	237.825	37.0367	189.818	51.4822	246.98	41.3205	263.144	18.3763	234.21	3.26885	209.472	41.6533	287.845
427154	11.6037	230.003	22.1302	238	37.0031	190.12	51.252	247.108	41.0778	263.117	18.22	234.407	3.22903	209.713	41.465	287.638
427155	11.4864	230.221	21.9485	238.175	36.9685	190.422	51.0215	247.234	40.835	263.091	18.0633	234.604	3.18893	209.953	41.2764	287.433
427156	11.3687	230.438	21.7664	238.35	36.9328	190.724	50.7909	247.358	40.5923	263.064	17.9063	234.799	3.14853	210.194	41.0876	287.228
427157	11.2507	230.656	21.584	238.524	36.8962	191.025	50.56	247.481	40.3495	263.037	17.7489	234.995	3.10784	210.435	40.8987	287.024
427158	11.1323	230.873	21.4012	238.696	36.8585	191.326	50.3289	247.602	40.1068	263.01	17.5911	235.189	3.06686	210.675	40.7095	286.822
427159	11.0135	231.089	21.2181	238.869	36.8199	191.626	50.0977	247.722	39.8641	262.982	17.433	235.384	3.02559	210.916	40.5201	286.62
427160	10.8944	231.306	21.0346	239.041	36.7803	191.927	49.8662	247.84	39.6214	262.955	17.2744	235.577	2.98403	211.156	40.3305	286.419
427161	10.7749	231.522	20.8509	239.212	36.7397	192.227	49.6346	247.957	39.3787	262.927	17.1155	235.771	2.94219	211.396	40.1407	286.219
427162	10.6551	231.738	20.6668	239.383	36.6981	192.526	49.4027	248.072	39.1361	262.9	16.9563	235.964	2.90006	211.636	39.9508	286.02
427163	10.5349	231.953	20.4824	239.553	36.6555	192.825	49.1707	248.186	38.8934	262.872	16.7966	236.156	2.85764	211.877	39.7606	285.821
427164	10.4143	232.169	20.2977	239.722	36.6119	193.124	48.9385	248.298	38.6508	262.844	16.6366	236.348	2.81494	212.117	39.5703	285.624
427165	10.2934	232.384	20.1126	239.891	36.5674	193.422	48.7061	248.41	38.4082	262.816	16.4763	236.539	2.77195	212.357	39.3797	285.427
427166	10.1722	232.598	19.9272	240.059	36.5219	193.72	48.4736	248.519	38.1656	262.788	16.3156	236.73	2.72868	212.597	39.189	285.231
427167	10.0505	232.813	19.7416	240.227	36.4754	194.018	48.2408	248.628	37.923	262.76	16.1546	236.92	2.68513	212.837	38.9981	285.036
427168	9.9286	233.027	19.5556	240.394	36.4279	194.315	48.0079	248.735	37.6804	262.731	15.9932	237.11	2.64129	213.077	38.8071	284.842
427169	9.80631	233.241	19.3693	240.56	36.3795	194.612	47.7748	248.84	37.4378	262.703	15.8315	237.299	2.59717	213.317	38.6158	284.649
427170	9.68368	233.454	19.1827	240.726	36.3301	194.908	47.5416	248.945	37.1953	262.675	15.6694	237.488	2.55278	213.556	38.4244	284.456
427171	9.56071	233.667	18.9958	240.892	36.2797	195.203	47.3082	249.048	36.9528	262.646	15.507	237.677	2.5081	213.796	38.2328	284.264
427172	9.4374	233.881	18.8086	241.056	36.2284	195.499	47.0746	249.15	36.7103	262.617	15.3442	237.865	2.46314	214.036	38.0411	284.073
427173	9.31376	234.093	18.6211	241.22	36.1761	195.794	46.8409	249.25	36.4678	262.588	15.1811	238.053	2.41791	214.275	37.8492	283.883
427174	9.18979	234.306	18.4333	241.384	36.1229	196.088	46.607	249.35	36.2253	262.559	15.0177	238.24	2.3724	214.515	37.6572	283.693
427175	9.06549	234.518	18.2452	241.547	36.0687	196.382	46.373	249.448	35.9828	262.53	14.8539	238.426	2.32661	214.754	37.465	283.505
427176	8.94086	234.73	18.0568	241.71	36.0136	196.676	46.1388	249.545	35.7404	262.501	14.6899	238.613	2.28055	214.994	37.2726	283.317
427177	8.81591	234.941	17.8682	241.872	35.9575	196.969	45.9045	249.641	35.498	262.471	14.5255	238.798	2.23422	215.233	37.0801	283.129
427178	8.69063	235.153	17.6792	242.033	35.9005	197.261	45.6701	249.736	35.2556	262.442	14.3607	238.984	2.18761	215.472	36.8874	282.942
427179	8.56503	235.364	17.49	242.194	35.8425	197.553	45.4355	249.83	35.0132	262.412	14.1957	239.168	2.14073	215.712	36.6946	282.757
427180	8.43911	235.575	17.3005	242.354	35.7836	197.845	45.2007	249.923	34.7708	262.383	14.0303	239.353	2.09357	215.951	36.5017	282.571
427181	8.31288	235.785	17.1107	242.514	35.7238	198.136	44.9658	250.014	34.5284	262.353	13.8646	239.537	2.04615	216.19	36.3086	282.387
427182	8.18633	235.996	16.9206	242.674	35.663	198.426	44.7308	250.104	34.2861	262.323	13.6987	239.72	1.99845	216.429	36.1154	282.203
427183	8.05947	236.206	16.7303	242.833	35.6013	198.716	44.4956	250.194	34.0438	262.293	13.5324	239.904	1.95049	216.668	35.9221	282.02
427184	7.93229	236.416	16.5397	242.991	35.5387	199.006	44.2604	250.282	33.8015	262.263	13.3658	240.086	1.90226	216.907	35.7286	281.837
427185	7.80481	236.625	16.3488	243.149	35.4751	199.295	44.0249	250.369	33.5592	262.233	13.1989	240.269	1.85376	217.146	35.535	281.655
427186	7.67702	236.834	16.1577	243.306	35.4107	199.583	43.7894	250.456	33.3169	262.202	13.0316	240.451	1.805	217.385	35.3412	281.474
427187	7.54893	237.043	15.9663	243.463	35.3453	199.871	43.5538	250.541	33.0746	262.172	12.8641	240.632	1.75597	217.623	35.1474	281.293
427188	7.42053	237.252	15.7747	243.619	35.279	200.158	43.318	250.625	32.8324	262.141	12.6963	240.813	1.70667	217.862	34.9534	281.113
427189	7.29183	237.461	15.5827	243.775	35.2118	200.445	43.0821	250.709	32.5902	262.11	12.5282	240.994	1.65711	218.101	34.7593	280.934
427190	7.16284	237.669	15.3906	243.93	35.1438	200.731	42.846	250.791	32.348	262.079	12.3598	241.174	1.60729	218.339	34.565	280.755
427191	7.03355	237.877	15.1981	244.085	35.0748	201.017	42.6099	250.873	32.1058	262.048	12.1911	241.354	1.55721	218.578	34.3707	280.577
427192	6.90396	238.085	15.0055	244.239	35.0049	201.302	42.3736	250.953	31.8636	262.017	12.0221	241.533	1.50687	218.816	34.1763	280.4
427193	6.77408	238.292	14.8125	244.393	34.9341	201.586	42.1373	251.033	31.6215	261.986	11.8529	241.712	1.45626	219.054	33.9817	280.223
427194	6.64391	238.5	14.6194	244.547	34.8624	201.87	41.9008	251.112	31.3793	261.955	11.6833	241.891	1.4054	219.293	33.787	280.046
427195	6.51346	238.707	14.4259	244.7	34.7899	202.154	41.6642	251.19	31.1372	261.923	11.5135	242.069	1.35428	219.531	33.5923	279.87
427196	6.38271	238.914	14.2323	244.852	34.7164	202.436	41.4275	251.266	30.8952	261.892	11.3434	242.247	1.30291	219.769	33.3974	279.695
427197	6.25169	239.12	14.0384	245.004	34.6421	202.719	41.1907	251.343	30.6531	261.86	11.173	242.425	1.25127	220.007	33.2024	279.52
427198	6.12038	239.327	13.8442	245.156	34.5669	203	40.9537	251.418	30.411	261.828	11.0023	242.602	1.19939	220.245	33.0073	279.346
427199	5.98879	239.533	13.6498	245.307	34.4908	203.281	40.7167	251.492	30.169	261.796	10.8314	242.779	1.14724	220.484	32.8121	279.173
427200	5.85692	239.739	13.4552	245.458	34.4139	203.561	40.4796	251.566	29.927	261.764	10.6602	242.955	1.09485	220.721	32.6169	279
427201	5.72478	239.945	13.2604	245.608	34.3361	203.841	40.2424	251.638	29.685	261.732	10.4887	243.131	1.0422	220.959	32.4215	278.827
427202	5.59236	240.15	13.0653	245.758	34.2574	204.12	40.0051	251.71	29.443	261.7	10.317	243.306	0.989303	221.197	32.226	278.655
427203	5.45967	240.355	12.87	245.907	34.1779	204.399	39.7677	251.781	29.2011	261.668	10.1449	243.482	0.936154	221.435	32.0305	278.483
427204	5.32671	240.56	12.6745	246.056	34.0975	204.677	39.5301	251.852	28.9591	261.635	9.97267	243.657	0.882756	221.673	31.8348	278.312
427205	5.19348	240.765	12.4787	246.204	34.0163	204.954	39.2925	251.921	28.7172	261.603	9.80014	243.831	0.829109	221.91	31.6391	278.142
427206	5.05999	240.97	12.2827	246.353	33.9343	205.23	39.0548	251.99	28.4753	261.57	9.62736	244.005	0.775215	222.148	31.4433	277.972
427207	4.92623	241.174	12.0865	246.5	33.8513	205.506	38.817	252.058	28.2335	261.537	9.45432	244.179	0.721075	222.386	31.2474	277.802
427208	4.79221	241.378	11.8901	246.648	33.7676	205.782	38.5792	252.125	27.9916	261.504	9.28102	244.353	0.666689	222.623	31.0515	277.633
427209	4.65794	241.582	11.6934	246.794	33.683	206.056	38.3412	252.192	27.7498	261.471	9.10747	244.526	0.612059	222.86	30.8554	277.465
427210	4.5234	241.786	11.4966	246.941	33.5976	206.331	38.1031	252.258	27.508	261.438	8.93368	244.699	0.557185	223.098	30.6593	277.296
427211	4.3886	241.989	11.2995	247.087	33.5114	206.604	37.865	252.323	27.2662	261.404	8.75963	244.871	0.50207	223.335	30.4631	277.129
427212	4.25355	242.192	11.1022	247.233	33.4243	206.877	37.6268	252.387	27.0244	261.371	8.58535	245.043	0.446712	223.572	30.2669	276.962
427213	4.11825	242.396	10.9047	247.378	33.3364	207.149	37.3884	252.451	26.7827	261.337	8.41081	245.215	0.391115	223.81	30.0705	276.795
427214	3.9827	242.599	10.707	247.523	33.2478	207.42	37.15	252.514	26.541	261.303	8.23604	245.387	0.335278	224.047	29.8741	276.628
427215	3.8469	242.801	10.5091	247.667	33.1583	207.691	36.9115	252.576	26.2993	261.27	8.06103	245.558	0.279202	224.284	29.6776	276.463
427216	3.71086	243.004	10.311	247.811	33.0679	207.961	36.673	252.637	26.0576	261.236	7.88578	245.729	0.22289	224.521	29.4811	276.297
427217	3.57457	243.206	10.1127	247.955	32.9768	208.231	36.4344	252.698	25.8159	261.202	7.7103	245.899	0.166341	224.758	29.2845	276.132
427218	3.43803	243.408	9.91416	248.098	32.8849	208.5	36.1956	252.758	25.5743	261.167	7.53458	246.069	0.109556	224.995	29.0878	275.967
427219	3.30126	243.61	9.71544	248.241	32.7922	208.768	35.9568	252.818	25.3327	261.133	7.35863	246.239	0.0525375	225.231	28.8911	275.803
427220	3.16425	243.812	9.51653	248.384	32.6987	209.035	35.718	252.877	25.0911	261.099	7.18245	246.409	-0.0047144	225.468	28.6944	275.639
427221	3.02699	244.013	9.31742	248.526	32.6044	209.302	35.479	252.935	24.8495	261.064	7.00605	246.578	-0.0621986	225.705	28.4975	275.476
427222	2.88951	244.215	9.11812	248.668	32.5094	209.568	35.24	252.993	24.608	261.029	6.82942	246.747	-0.119914	225.942	28.3007	275.313
427223	2.75179	244.416	8.91862	248.81	32.4135	209.834	35.0009	253.05	24.3665	260.995	6.65256	246.916	-0.17786	226.178	28.1037	275.15
427224	2.61384	244.617	8.71894	248.951	32.3169	210.098	34.7617	253.106	24.125	260.96	6.47549	247.084	-0.236034	226.415	27.9067	274.988
427225	2.47567	244.818	8.51906	249.092	32.2195	210.363	34.5225	253.162	23.8835	260.925	6.29819	247.252	-0.294437	226.651	27.7097	274.826
427226	2.33726	245.018	8.319	249.232	32.1214	210.626	34.2832	253.218	23.6421	260.889	6.12068	247.42	-0.353067	226.888	27.5126	274.664
427227	2.19863	245.219	8.11876	249.372	32.0225	210.889	34.0438	253.272	23.4006	260.854	5.94296	247.588	-0.411922	227.124	27.3155	274.503
427228	2.05978	245.419	7.91833	249.512	31.9228	211.151	33.8044	253.326	23.1593	260.818	5.76501	247.755	-0.471003	227.361	27.1183	274.342
427229	1.9207	245.619	7.71771	249.651	31.8224	211.412	33.5649	253.38	22.9179	260.783	5.58686	247.922	-0.530308	227.597	26.9211	274.182
427230	1.7814	245.819	7.51692	249.791	31.7212	211.673	33.3253	253.432	22.6765	260.747	5.4085	248.088	-0.589835	227.833	26.7238	274.022
427231	1.64189	246.019	7.31595	249.929	31.6193	211.933	33.0857	253.485	22.4352	260.711	5.22992	248.255	-0.649585	228.069	26.5266	273.862
427232	1.50216	246.218	7.1148	250.068	31.5166	212.192	32.846	253.536	22.1939	260.675	5.05115	248.421	-0.709554	228.305	26.3292	273.702
427233	1.36222	246.418	6.91347	250.206	31.4132	212.451	32.6062	253.588	21.9526	260.639	4.87216	248.587	-0.769744	228.541	26.1319	273.543
427234	1.22206	246.617	6.71197	250.344	31.3091	212.709	32.3663	253.638	21.7114	260.603	4.69298	248.752	-0.830152	228.777	25.9345	273.384
427235	1.0817	246.816	6.5103	250.481	31.2042	212.966	32.1265	253.688	21.4702	260.567	4.51359	248.917	-0.890778	229.013	25.737	273.226
427236	0.941122	247.015	6.30846	250.619	31.0986	213.222	31.8865	253.738	21.229	260.53	4.33401	249.083	-0.95162	229.249	25.5396	273.068
427237	0.80034	247.214	6.10644	250.755	30.9923	213.478	31.6465	253.787	20.9878	260.493	4.15422	249.247	-1.01268	229.485	25.3421	272.91
427238	0.659354	247.413	5.90426	250.892	30.8853	213.733	31.4064	253.835	20.7466	260.457	3.97424	249.412	-1.07395	229.721	25.1445	272.752
427239	0.518164	247.611	5.70192	251.028	30.7775	213.988	31.1663	253.883	20.5055	260.42	3.79407	249.576	-1.13543	229.957	24.947	272.595
427240	0.376773	247.81	5.4994	251.164	30.6691	214.242	30.9261	253.93	20.2644	260.382	3.61371	249.74	-1.19713	230.192	24.7494	272.438
427241	0.235183	248.008	5.29673	251.3	30.5599	214.495	30.6859	253.977	20.0234	260.345	3.43315	249.904	-1.25904	230.428	24.5519	272.281
427242	0.093396	248.206	5.09389	251.435	30.4501	214.747	30.4456	254.024	19.7823	260.308	3.25241	250.068	-1.32116	230.664	24.3542	272.125
427243	-0.048587	248.404	4.89089	251.571	30.3395	214.999	30.2052	254.07	19.5413	260.27	3.07148	250.231	-1.38349	230.899	24.1566	271.968
427244	-0.190764	248.601	4.68773	251.706	30.2282	215.25	29.9648	254.115	19.3003	260.233	2.89037	250.394	-1.44602	231.135	23.9589	271.813
427245	-0.333133	248.799	4.48442	251.84	30.1163	215.5	29.7243	254.16	19.0594	260.195	2.70907	250.557	-1.50876	231.37	23.7613	271.657
427246	-0.475692	248.997	4.28095	251.974	30.0037	215.75	29.4838	254.204	18.8184	260.157	2.52759	250.72	-1.57171	231.606	23.5636	271.502
427247	-0.618439	249.194	4.07732	252.108	29.8904	215.999	29.2432	254.248	18.5775	260.119	2.34593	250.882	-1.63486	231.841	23.3659	271.346
427248	-0.761373	249.391	3.87354	252.242	29.7764	216.247	29.0026	254.292	18.3366	260.081	2.16409	251.044	-1.69821	232.076	23.1682	271.191
427249	-0.904492	249.588	3.66961	252.376	29.6617	216.494	28.762	254.335	18.0958	260.043	1.98208	251.206	-1.76177	232.312	22.9704	271.037
427250	-1.04779	249.785	3.46553	252.509	29.5464	216.741	28.5212	254.377	17.855	260.004	1.79989	251.368	-1.82553	232.547	22.7727	270.882
427251	-1.19128	249.982	3.26129	252.642	29.4304	216.987	28.2805	254.419	17.6142	259.965	1.61753	251.53	-1.88949	232.782	22.575	270.728
427252	-1.33494	250.179	3.05692	252.774	29.3138	217.233	28.0397	254.461	17.3734	259.927	1.435	251.691	-1.95365	233.017	22.3772	270.574
427253	-1.47878	250.376	2.85239	252.907	29.1965	217.477	27.7988	254.502	17.1327	259.888	1.2523	251.852	-2.018	233.252	22.1795	270.421
427254	-1.62279	250.572	2.64772	253.039	29.0785	217.721	27.5579	254.543	16.892	259.849	1.06943	252.013	-2.08255	233.487	21.9817	270.267
427255	-1.76698	250.769	2.44291	253.171	28.9599	217.965	27.3169	254.583	16.6513	259.81	0.886388	252.174	-2.1473	233.722	21.784	270.114
427256	-1.91134	250.965	2.23795	253.303	28.8406	218.207	27.0759	254.623	16.4107	259.77	0.703187	252.334	-2.21224	233.957	21.5862	269.961
427257	-2.05588	251.161	2.03285	253.434	28.7207	218.449	26.8349	254.662	16.1701	259.731	0.519822	252.495	-2.27738	234.192	21.3884	269.808
427258	-2.20058	251.357	1.82761	253.566	28.6002	218.691	26.5938	254.701	15.9295	259.691	0.336295	252.655	-2.3427	234.427	21.1907	269.655
427259	-2.34544	251.553	1.62224	253.697	28.479	218.931	26.3526	254.74	15.689	259.651	0.152609	252.815	-2.40822	234.662	20.9929	269.503
427260	-2.49047	251.749	1.41673	253.827	28.3573	219.171	26.1114	254.778	15.4484	259.611	-0.0312358	252.975	-2.47393	234.897	20.7952	269.351
427261	-2.63567	251.945	1.21108	253.958	28.2348	219.41	25.8702	254.815	15.2079	259.571	-0.215237	253.134	-2.53983	235.131	20.5974	269.199
427262	-2.78103	252.14	1.0053	254.088	28.1118	219.649	25.6289	254.853	14.9675	259.531	-0.399393	253.293	-2.60591	235.366	20.3997	269.047
427263	-2.92654	252.336	0.79938	254.219	27.9881	219.887	25.3876	254.89	14.7271	259.49	-0.583703	253.453	-2.67218	235.601	20.202	268.895
427264	-3.07222	252.531	0.593333	254.348	27.8639	220.124	25.1463	254.926	14.4867	259.45	-0.768165	253.612	-2.73864	235.835	20.0042	268.744
427265	-3.21805	252.727	0.387155	254.478	27.739	220.36	24.9049	254.962	14.2463	259.409	-0.952777	253.771	-2.80528	236.07	19.8065	268.592
427266	-3.36403	252.922	0.180848	254.608	27.6135	220.596	24.6635	254.998	14.006	259.368	-1.13754	253.929	-2.87211	236.304	19.6088	268.441
427267	-3.51017	253.117	-0.0255877	254.737	27.4874	220.831	24.422	255.033	13.7657	259.327	-1.32245	254.088	-2.93911	236.539	19.4112	268.29
427268	-3.65646	253.313	-0.23215	254.866	27.3607	221.066	24.1805	255.068	13.5254	259.286	-1.5075	254.246	-3.0063	236.773	19.2135	268.139
427269	-3.8029	253.508	-0.438837	254.995	27.2334	221.299	23.9389	255.102	13.2852	259.245	-1.6927	254.405	-3.07367	237.008	19.0159	267.989
427270	-3.94948	253.703	-0.645649	255.124	27.1056	221.532	23.6973	255.136	13.045	259.203	-1.87804	254.563	-3.14121	237.242	18.8182	267.838
427271	-4.09621	253.898	-0.852584	255.252	26.9771	221.765	23.4557	255.17	12.8048	259.161	-2.06352	254.721	-3.20893	237.477	18.6206	267.688
427272	-4.24309	254.092	-1.05964	255.38	26.8481	221.997	23.214	255.203	12.5647	259.12	-2.24914	254.879	-3.27683	237.711	18.423	267.538
427273	-4.3901	254.287	-1.26682	255.508	26.7184	222.228	22.9723	255.236	12.3246	259.078	-2.4349	255.036	-3.34491	237.945	18.2254	267.387
427274	-4.53726	254.482	-1.47412	255.636	26.5882	222.458	22.7306	255.269	12.0845	259.035	-2.62079	255.194	-3.41315	238.179	18.0279	267.238
427275	-4.68455	254.676	-1.68153	255.764	26.4575	222.688	22.4888	255.301	11.8445	258.993	-2.80682	255.351	-3.48157	238.414	17.8304	267.088
427276	-4.83199	254.871	-1.88906	255.892	26.3261	222.917	22.247	255.333	11.6045	258.951	-2.99298	255.509	-3.55017	238.648	17.6329	266.938
427277	-4.97955	255.065	-2.09671	256.019	26.1942	223.145	22.0052	255.364	11.3645	258.908	-3.17928	255.666	-3.61893	238.882	17.4354	266.788
427278	-5.12725	255.26	-2.30447	256.146	26.0618	223.373	21.7633	255.395	11.1246	258.865	-3.3657	255.823	-3.68786	239.116	17.238	266.639
427279	-5.27509	255.454	-2.51235	256.273	25.9288	223.6	21.5214	255.426	10.8847	258.822	-3.55226	255.98	-3.75696	239.35	17.0406	266.49
427280	-5.42305	255.649	-2.72034	256.4	25.7952	223.827	21.2794	255.456	10.6449	258.779	-3.73894	256.137	-3.82623	239.584	16.8432	266.341
427281	-5.57114	255.843	-2.92844	256.527	25.6611	224.052	21.0375	255.486	10.405	258.736	-3.92575	256.293	-3.89566	239.818	16.6459	266.191
427282	-5.71936	256.037	-3.13665	256.654	25.5264	224.277	20.7954	255.516	10.1653	258.692	-4.11268	256.45	-3.96526	240.052	16.4486	266.042
427283	-5.8677	256.231	-3.34496	256.78	25.3912	224.502	20.5534	255.545	9.92552	258.648	-4.29973	256.606	-4.03502	240.286	16.2513	265.894
427284	-6.01616	256.425	-3.55339	256.906	25.2555	224.726	20.3113	255.574	9.68581	258.604	-4.48691	256.762	-4.10494	240.52	16.0541	265.745
427285	-6.16475	256.62	-3.76192	257.032	25.1192	224.949	20.0692	255.603	9.44614	258.56	-4.6742	256.919	-4.17502	240.754	15.8569	265.596
427286	-6.31345	256.814	-3.97056	257.158	24.9824	225.171	19.8271	255.631	9.20651	258.516	-4.86161	257.075	-4.24526	240.988	15.6597	265.447
427287	-6.46228	257.008	-4.1793	257.284	24.8451	225.393	19.5849	255.659	8.96691	258.472	-5.04915	257.231	-4.31567	241.222	15.4626	265.299
427288	-6.61121	257.202	-4.38815	257.41	24.7072	225.614	19.3427	255.687	8.72736	258.427	-5.23679	257.387	-4.38623	241.456	15.2655	265.15
427289	-6.76027	257.396	-4.5971	257.535	24.5688	225.835	19.1005	255.714	8.48784	258.382	-5.42455	257.543	-4.45694	241.689	15.0685	265.002
427290	-6.90944	257.589	-4.80614	257.661	24.4299	226.055	18.8583	255.741	8.24836	258.337	-5.61242	257.698	-4.52781	241.923	14.8715	264.854
427291	-7.05871	257.783	-5.01529	257.786	24.2905	226.274	18.616	255.767	8.00892	258.292	-5.80041	257.854	-4.59884	242.157	14.6746	264.705
427292	-7.2081	257.977	-5.22454	257.911	24.1506	226.493	18.3737	255.794	7.76952	258.247	-5.9885	258.01	-4.67001	242.391	14.4777	264.557
427293	-7.35759	258.171	-5.43389	258.036	24.0102	226.711	18.1313	255.82	7.53016	258.201	-6.17671	258.165	-4.74134	242.624	14.2808	264.409
427294	-7.50719	258.365	-5.64333	258.161	23.8692	226.928	17.889	255.845	7.29084	258.156	-6.36501	258.32	-4.81282	242.858	14.084	264.261
427295	-7.6569	258.559	-5.85286	258.286	23.7278	227.145	17.6466	255.87	7.05156	258.11	-6.55343	258.476	-4.88445	243.092	13.8873	264.113
427296	-7.8067	258.753	-6.0625	258.411	23.5859	227.361	17.4042	255.895	6.81232	258.064	-6.74195	258.631	-4.95622	243.325	13.6906	263.965
427297	-7.95661	258.947	-6.27222	258.535	23.4435	227.577	17.1617	255.92	6.57312	258.017	-6.93057	258.786	-5.02815	243.559	13.494	263.817
427298	-8.10661	259.14	-6.48204	258.66	23.3006	227.792	16.9193	255.945	6.33397	257.971	-7.11929	258.941	-5.10022	243.792	13.2974	263.67
427299	-8.25672	259.334	-6.69194	258.784	23.1572	228.006	16.6768	255.969	6.09485	257.924	-7.30811	259.096	-5.17243	244.026	13.1009	263.522
427300	-8.40691	259.528	-6.90194	258.908	23.0133	228.22	16.4342	255.992	5.85578	257.877	-7.49703	259.252	-5.24478	244.26	12.9044	263.374
427301	-8.55721	259.722	-7.11203	259.033	22.869	228.433	16.1917	256.016	5.61674	257.83	-7.68605	259.406	-5.31728	244.493	12.708	263.226
427302	-8.70759	259.916	-7.32221	259.157	22.7242	228.645	15.9491	256.039	5.37775	257.783	-7.87516	259.561	-5.38992	244.727	12.5116	263.079
427303	-8.85806	260.109	-7.53247	259.281	22.5788	228.857	15.7065	256.062	5.13881	257.736	-8.06437	259.716	-5.4627	244.96	12.3154	262.931
427304	-9.00863	260.303	-7.74282	259.405	22.4331	229.068	15.4639	256.084	4.89991	257.688	-8.25366	259.871	-5.53561	245.194	12.1191	262.783
427305	-9.15928	260.497	-7.95325	259.528	22.2869	229.279	15.2213	256.106	4.66105	257.64	-8.44305	260.026	-5.60866	245.427	11.923	262.635
427306	-9.31001	260.691	-8.16377	259.652	22.1402	229.489	14.9786	256.128	4.42223	257.592	-8.63253	260.181	-5.68185	245.661	11.7269	262.488
427307	-9.46083	260.885	-8.37437	259.776	21.993	229.699	14.7359	256.15	4.18346	257.544	-8.8221	260.335	-5.75518	245.894	11.5309	262.34
427308	-9.61173	261.079	-8.58505	259.899	21.8454	229.908	14.4932	256.171	3.94474	257.496	-9.01176	260.49	-5.82863	246.127	11.3349	262.193
427309	-9.76271	261.272	-8.79581	260.023	21.6974	230.116	14.2505	256.192	3.70606	257.447	-9.2015	260.645	-5.90222	246.361	11.139	262.045
427310	-9.91377	261.466	-9.00665	260.146	21.5489	230.324	14.0077	256.213	3.46742	257.398	-9.39132	260.799	-5.97594	246.594	10.9432	261.898
427311	-10.0649	261.66	-9.21757	260.27	21.3999	230.531	13.765	256.233	3.22883	257.349	-9.58123	260.954	-6.04979	246.828	10.7475	261.75
427312	-10.2161	261.854	-9.42857	260.393	21.2505	230.737	13.5222	256.254	2.99029	257.3	-9.77122	261.109	-6.12376	247.061	10.5518	261.602
427313	-10.3674	262.048	-9.63965	260.516	21.1007	230.943	13.2794	256.274	2.75179	257.25	-9.96129	261.263	-6.19787	247.295	10.3562	261.455
427314	-10.5188	262.242	-9.8508	260.639	20.9504	231.149	13.0365	256.293	2.51334	257.2	-10.1514	261.418	-6.2721	247.528	10.1607	261.307
427315	-10.6702	262.436	-10.062	260.762	20.7997	231.354	12.7937	256.312	2.27494	257.151	-10.3417	261.572	-6.34646	247.761	9.96521	261.16
427316	-10.8217	262.63	-10.2733	260.885	20.6486	231.558	12.5508	256.332	2.03659	257.1	-10.532	261.727	-6.42094	247.995	9.76984	261.012
427317	-10.9732	262.825	-10.4847	261.009	20.497	231.762	12.3079	256.35	1.79828	257.05	-10.7223	261.882	-6.49554	248.228	9.57456	260.864
427318	-11.1249	263.019	-10.6961	261.132	20.345	231.965	12.065	256.369	1.56002	256.999	-10.9128	262.036	-6.57026	248.461	9.37935	260.717
427319	-11.2765	263.213	-10.9077	261.255	20.1926	232.167	11.8221	256.387	1.32181	256.949	-11.1033	262.191	-6.6451	248.695	9.18422	260.569
427320	-11.4283	263.408	-11.1192	261.377	20.0398	232.369	11.5791	256.405	1.08365	256.897	-11.2939	262.345	-6.72006	248.928	8.98919	260.421
427321	-11.5801	263.602	-11.3309	261.5	19.8865	232.571	11.3362	256.422	0.845541	256.846	-11.4846	262.5	-6.79514	249.161	8.79423	260.273
427322	-11.7319	263.796	-11.5426	261.623	19.7329	232.772	11.0932	256.44	0.607481	256.795	-11.6753	262.655	-6.87033	249.395	8.59936	260.125
427323	-11.8839	263.991	-11.7544	261.746	19.5788	232.972	10.8502	256.457	0.369472	256.743	-11.8661	262.809	-6.94564	249.628	8.40458	259.978
427324	-12.0358	264.185	-11.9663	261.869	19.4244	233.172	10.6072	256.474	0.131513	256.691	-12.0569	262.964	-7.02106	249.862	8.20989	259.83
427325	-12.1879	264.38	-12.1782	261.991	19.2695	233.371	10.3641	256.49	-0.106394	256.639	-12.2479	263.119	-7.0966	250.095	8.01528	259.682
427326	-12.3399	264.575	-12.3902	262.114	19.1142	233.57	10.1211	256.507	-0.344249	256.586	-12.4389	263.273	-7.17225	250.328	7.82077	259.534
427327	-12.4921	264.769	-12.6022	262.237	18.9586	233.768	9.87802	256.523	-0.582052	256.534	-12.6299	263.428	-7.248	250.561	7.62636	259.386
427328	-12.6442	264.964	-12.8143	262.36	18.8025	233.966	9.63494	256.538	-0.819802	256.481	-12.821	263.583	-7.32387	250.795	7.43203	259.238
427329	-12.7965	265.159	-13.0265	262.482	18.6461	234.163	9.39184	256.554	-1.0575	256.428	-13.0122	263.738	-7.39984	251.028	7.23781	259.089
427330	-12.9487	265.354	-13.2387	262.605	18.4892	234.36	9.14873	256.569	-1.29514	256.374	-13.2034	263.893	-7.47591	251.262	7.04368	258.941
427331	-13.101	265.549	-13.451	262.728	18.332	234.556	8.9056	256.584	-1.53273	256.321	-13.3947	264.048	-7.5521	251.495	6.84964	258.793
427332	-13.2534	265.745	-13.6633	262.851	18.1744	234.751	8.66246	256.599	-1.77027	256.267	-13.586	264.203	-7.62838	251.728	6.65571	258.644
427333	-13.4058	265.94	-13.8757	262.973	18.0164	234.946	8.4193	256.613	-2.00775	256.213	-13.7774	264.358	-7.70477	251.962	6.46188	258.496
427334	-13.5582	266.135	-14.0882	263.096	17.8581	235.141	8.17613	256.627	-2.24517	256.158	-13.9688	264.513	-7.78126	252.195	6.26815	258.347
427335	-13.7106	266.33	-14.3007	263.219	17.6994	235.335	7.93294	256.641	-2.48254	256.104	-14.1603	264.668	-7.85785	252.429	6.07453	258.199
427336	-13.8631	266.526	-14.5132	263.342	17.5403	235.529	7.68974	256.655	-2.71985	256.049	-14.3518	264.823	-7.93454	252.662	5.88101	258.05
427337	-14.0157	266.722	-14.7259	263.464	17.3808	235.722	7.44653	256.668	-2.95711	255.994	-14.5434	264.978	-8.01133	252.895	5.68759	257.901
427338	-14.1682	266.918	-14.9385	263.587	17.2209	235.914	7.20331	256.681	-3.19431	255.938	-14.735	265.134	-8.08821	253.129	5.49429	257.752
427339	-14.3208	267.113	-15.1513	263.71	17.0607	236.106	6.96007	256.694	-3.43145	255.883	-14.9267	265.289	-8.16518	253.362	5.30109	257.603
427340	-14.4734	267.309	-15.364	263.833	16.9002	236.298	6.71682	256.707	-3.66853	255.827	-15.1184	265.445	-8.24225	253.596	5.10801	257.454
427341	-14.626	267.505	-15.5769	263.956	16.7393	236.489	6.47355	256.719	-3.90555	255.77	-15.3101	265.601	-8.31941	253.829	4.91503	257.305
427342	-14.7787	267.702	-15.7897	264.079	16.578	236.679	6.23027	256.731	-4.14252	255.714	-15.5019	265.756	-8.39667	254.063	4.72217	257.156
427343	-14.9313	267.898	-16.0026	264.202	16.4164	236.869	5.98699	256.743	-4.37942	255.657	-15.6937	265.912	-8.47401	254.296	4.52943	257.007
427344	-15.084	268.094	-16.2156	264.325	16.2544	237.059	5.74369	256.755	-4.61626	255.6	-15.8856	266.068	-8.55144	254.53	4.3368	256.857
427345	-15.2367	268.291	-16.4286	264.448	16.0921	237.248	5.50038	256.766	-4.85305	255.543	-16.0775	266.224	-8.62896	254.763	4.14429	256.707
427346	-15.3895	268.488	-16.6417	264.571	15.9294	237.437	5.25706	256.777	-5.08977	255.486	-16.2694	266.38	-8.70656	254.997	3.95189	256.558
427347	-15.5422	268.685	-16.8547	264.694	15.7664	237.625	5.01372	256.788	-5.32643	255.428	-16.4614	266.536	-8.78425	255.23	3.75962	256.408
427348	-15.695	268.882	-17.0679	264.817	15.6031	237.813	4.77038	256.799	-5.56302	255.37	-16.6534	266.693	-8.86202	255.464	3.56747	256.258
427349	-15.8477	269.079	-17.2811	264.94	15.4394	238	4.52703	256.809	-5.79956	255.311	-16.8454	266.849	-8.93988	255.697	3.37545	256.108
427350	-16.0005	269.276	-17.4943	265.064	15.2754	238.187	4.28367	256.82	-6.03603	255.253	-17.0375	267.006	-9.01781	255.931	3.18354	255.958
427351	-16.1533	269.473	-17.7076	265.187	15.111	238.373	4.04029	256.829	-6.27244	255.194	-17.2296	267.162	-9.09582	256.165	2.99177	255.807
427352	-16.306	269.671	-17.9209	265.311	14.9464	238.559	3.79691	256.839	-6.50878	255.135	-17.4217	267.319	-9.17392	256.399	2.80012	255.657
427353	-16.4588	269.869	-18.1342	265.434	14.7814	238.744	3.55352	256.849	-6.74505	255.075	-17.6138	267.476	-9.25208	256.632	2.6086	255.506
427354	-16.6116	270.067	-18.3476	265.558	14.616	238.929	3.31012	256.858	-6.98126	255.015	-17.806	267.633	-9.33033	256.866	2.41721	255.355
427355	-16.7644	270.264	-18.561	265.682	14.4504	239.114	3.06671	256.866	-7.21741	254.955	-17.9982	267.79	-9.40865	257.1	2.22595	255.204
427356	-16.9172	270.463	-18.7744	265.805	14.2844	239.298	2.82329	256.875	-7.45349	254.895	-18.1904	267.948	-9.48704	257.334	2.03483	255.053
427357	-17.0699	270.661	-18.9879	265.93	14.1182	239.482	2.57987	256.884	-7.6895	254.834	-18.3826	268.105	-9.5655	257.567	1.84384	254.902
427358	-17.2227	270.86	-19.2014	266.053	13.9516	239.665	2.33643	256.892	-7.92544	254.773	-18.5749	268.263	-9.64404	257.801	1.65299	254.75
427359	-17.3755	271.058	-19.4149	266.178	13.7847	239.848	2.09299	256.9	-8.16131	254.712	-18.7671	268.421	-9.72264	258.035	1.46227	254.599
427360	-17.5282	271.257	-19.6285	266.302	13.6175	240.03	1.84954	256.907	-8.39711	254.65	-18.9594	268.579	-9.80131	258.269	1.2717	254.447
427361	-17.681	271.456	-19.8421	266.426	13.4499	240.212	1.60609	256.915	-8.63285	254.588	-19.1517	268.737	-9.88005	258.503	1.08126	254.295
427362	-17.8337	271.655	-20.0557	266.55	13.2821	240.393	1.36262	256.922	-8.86851	254.526	-19.344	268.895	-9.95885	258.737	0.890968	254.143
427363	-17.9864	271.855	-20.2694	266.675	13.114	240.574	1.11915	256.929	-9.1041	254.463	-19.5363	269.054	-10.0377	258.971	0.700819	253.991
427364	-18.1391	272.054	-20.4831	266.8	12.9456	240.755	0.875678	256.936	-9.33962	254.4	-19.7286	269.212	-10.1166	259.205	0.510815	253.839
427365	-18.2918	272.254	-20.6968	266.925	12.7769	240.935	0.632195	256.942	-9.57507	254.337	-19.9209	269.371	-10.1956	259.439	0.320958	253.686
427366	-18.4444	272.454	-20.9105	267.049	12.6079	241.115	0.388706	256.949	-9.81044	254.274	-20.1132	269.53	-10.2747	259.673	0.131249	253.533
427367	-18.5971	272.654	-21.1243	267.175	12.4386	241.294	0.145211	256.954	-10.0457	254.21	-20.3056	269.69	-10.3538	259.907	-0.0583099	253.381
427368	-18.7497	272.855	-21.3381	267.3	12.269	241.474	-0.0982886	256.96	-10.281	254.146	-20.4979	269.849	-10.433	260.141	-0.247718	253.227
427369	-18.9023	273.055	-21.5519	267.425	12.0991	241.652	-0.341794	256.966	-10.5161	254.081	-20.6902	270.009	-10.5122	260.376	-0.436972	253.074
427370	-19.0548	273.256	-21.7657	267.55	11.9289	241.83	-0.585305	256.971	-10.7512	254.017	-20.8826	270.168	-10.5915	260.61	-0.626072	252.921
427371	-19.2074	273.457	-21.9796	267.676	11.7585	242.008	-0.82882	256.976	-10.9862	253.951	-21.0749	270.328	-10.6708	260.844	-0.815017	252.767
427372	-19.3599	273.658	-22.1934	267.802	11.5877	242.185	-1.07234	256.981	-11.2211	253.886	-21.2672	270.489	-10.7502	261.079	-1.0038	252.613
427373	-19.5123	273.86	-22.4073	267.928	11.4167	242.363	-1.31587	256.986	-11.4559	253.82	-21.4596	270.649	-10.8296	261.313	-1.19243	252.459
427374	-19.6647	274.061	-22.6212	268.054	11.2455	242.539	-1.55939	256.99	-11.6907	253.754	-21.6519	270.81	-10.9091	261.547	-1.3809	252.304
427375	-19.8171	274.263	-22.8351	268.18	11.0739	242.715	-1.80293	256.994	-11.9254	253.687	-21.8442	270.971	-10.9886	261.782	-1.5692	252.15
427376	-19.9694	274.465	-23.0491	268.306	10.9021	242.891	-2.04646	256.998	-12.16	253.62	-22.0365	271.132	-11.0682	262.017	-1.75734	251.995
427377	-20.1217	274.667	-23.263	268.433	10.73	243.067	-2.29	257.001	-12.3945	253.553	-22.2288	271.293	-11.1478	262.251	-1.94532	251.84
427378	-20.274	274.87	-23.477	268.56	10.5576	243.242	-2.53354	257.005	-12.6289	253.486	-22.4211	271.455	-11.2275	262.486	-2.13313	251.685
427379	-20.4262	275.073	-23.6909	268.687	10.385	243.417	-2.77709	257.008	-12.8633	253.417	-22.6133	271.617	-11.3072	262.72	-2.32077	251.53
427380	-20.5784	275.276	-23.9049	268.814	10.2121	243.591	-3.02064	257.011	-13.0976	253.349	-22.8056	271.779	-11.387	262.955	-2.50823	251.374
427381	-20.7305	275.479	-24.1189	268.941	10.0389	243.765	-3.26419	257.014	-13.3318	253.28	-22.9978	271.941	-11.4667	263.19	-2.69553	251.218
427382	-20.8826	275.683	-24.3329	269.069	9.86552	243.939	-3.50774	257.016	-13.5659	253.211	-23.19	272.104	-11.5466	263.425	-2.88265	251.062
427383	-21.0346	275.886	-24.5469	269.196	9.69186	244.112	-3.7513	257.018	-13.7999	253.142	-23.3822	272.267	-11.6265	263.66	-3.0696	250.906
427384	-21.1865	276.09	-24.7609	269.324	9.51793	244.285	-3.99485	257.02	-14.0338	253.072	-23.5744	272.43	-11.7064	263.894	-3.25637	250.749
427385	-21.3384	276.295	-24.9749	269.452	9.34376	244.458	-4.23841	257.022	-14.2677	253.002	-23.7666	272.593	-11.7863	264.13	-3.44297	250.593
427386	-21.4902	276.499	-25.189	269.581	9.16933	244.63	-4.48197	257.023	-14.5014	252.931	-23.9587	272.757	-11.8663	264.365	-3.62938	250.435
427387	-21.642	276.704	-25.403	269.709	8.99466	244.802	-4.72553	257.024	-14.7351	252.86	-24.1508	272.921	-11.9463	264.6	-3.81561	250.278
427388	-21.7937	276.909	-25.617	269.838	8.81974	244.974	-4.9691	257.025	-14.9687	252.789	-24.3429	273.085	-12.0263	264.835	-4.00165	250.121
427389	-21.9454	277.115	-25.8311	269.967	8.64457	245.145	-5.21266	257.026	-15.2022	252.717	-24.5349	273.249	-12.1064	265.07	-4.18752	249.963
427390	-22.097	277.32	-26.0451	270.096	8.46917	245.316	-5.45622	257.027	-15.4356	252.645	-24.7269	273.414	-12.1865	265.305	-4.37319	249.805
427391	-22.2485	277.526	-26.2591	270.226	8.29352	245.486	-5.69979	257.027	-15.6689	252.573	-24.9189	273.579	-12.2666	265.541	-4.55867	249.647
427392	-22.3999	277.732	-26.4732	270.355	8.11764	245.657	-5.94335	257.027	-15.9021	252.5	-25.1108	273.745	-12.3468	265.776	-4.74397	249.488
427393	-22.5513	277.939	-26.6872	270.485	7.94152	245.827	-6.18691	257.027	-16.1352	252.426	-25.3028	273.911	-12.4269	266.012	-4.92907	249.329
427394	-22.7025	278.146	-26.9012	270.616	7.76516	245.996	-6.43047	257.026	-16.3682	252.352	-25.4946	274.077	-12.5071	266.247	-5.11398	249.17
427395	-22.8538	278.353	-27.1152	270.746	7.58858	246.166	-6.67403	257.026	-16.6012	252.278	-25.6865	274.243	-12.5873	266.483	-5.29869	249.011
427396	-23.0049	278.56	-27.3292	270.877	7.41176	246.334	-6.91759	257.025	-16.834	252.204	-25.8783	274.41	-12.6676	266.719	-5.4832	248.851
427397	-23.1559	278.768	-27.5432	271.008	7.23472	246.503	-7.16115	257.023	-17.0667	252.129	-26.07	274.577	-12.7478	266.954	-5.66752	248.691
427398	-23.3069	278.976	-27.7572	271.139	7.05745	246.672	-7.40471	257.022	-17.2993	252.053	-26.2617	274.744	-12.8281	267.19	-5.85163	248.531
427399	-23.4578	279.184	-27.9712	271.271	6.87995	246.84	-7.64827	257.02	-17.5319	251.977	-26.4534	274.912	-12.9084	267.426	-6.03555	248.37
427400	-23.6085	279.392	-28.1852	271.402	6.70224	247.007	-7.89182	257.018	-17.7643	251.901	-26.645	275.08	-12.9887	267.662	-6.21925	248.209
427401	-23.7592	279.601	-28.3991	271.534	6.5243	247.175	-8.13537	257.016	-17.9966	251.824	-26.8365	275.248	-13.069	267.898	-6.40275	248.048
427402	-23.9098	279.811	-28.6131	271.667	6.34615	247.342	-8.37892	257.014	-18.2289	251.747	-27.028	275.417	-13.1493	268.134	-6.58604	247.887
427403	-24.0603	280.02	-28.827	271.8	6.16777	247.509	-8.62247	257.011	-18.461	251.669	-27.2195	275.586	-13.2297	268.37	-6.76912	247.725
427404	-24.2108	280.23	-29.0409	271.933	5.98919	247.675	-8.86601	257.008	-18.693	251.591	-27.4109	275.756	-13.31	268.606	-6.95199	247.563
427405	-24.3611	280.44	-29.2548	272.066	5.81039	247.842	-9.10955	257.005	-18.9249	251.513	-27.6022	275.925	-13.3904	268.843	-7.13465	247.401
427406	-24.5113	280.651	-29.4687	272.2	5.63138	248.008	-9.35309	257.002	-19.1567	251.434	-27.7935	276.096	-13.4708	269.079	-7.31709	247.238
427407	-24.6614	280.862	-29.6826	272.334	5.45216	248.174	-9.59662	256.998	-19.3884	251.354	-27.9847	276.266	-13.5511	269.315	-7.49931	247.075
427408	-24.8114	281.073	-29.8964	272.468	5.27273	248.339	-9.84015	256.994	-19.62	251.274	-28.1759	276.438	-13.6315	269.552	-7.68131	246.912
427409	-24.9613	281.285	-30.1103	272.603	5.0931	248.504	-10.0837	256.99	-19.8515	251.194	-28.367	276.609	-13.7119	269.789	-7.86309	246.748
427410	-25.1111	281.497	-30.3241	272.738	4.91327	248.669	-10.3272	256.986	-20.0829	251.113	-28.558	276.781	-13.7922	270.025	-8.04464	246.584
427411	-25.2607	281.709	-30.5378	272.873	4.73323	248.834	-10.5707	256.981	-20.3141	251.031	-28.7489	276.953	-13.8726	270.262	-8.22598	246.42
427412	-25.4103	281.922	-30.7516	273.009	4.553	248.998	-10.8142	256.976	-20.5452	250.949	-28.9398	277.126	-13.953	270.499	-8.40708	246.256
427413	-25.5597	282.135	-30.9653	273.144	4.37256	249.162	-11.0577	256.971	-20.7763	250.867	-29.1306	277.299	-14.0334	270.736	-8.58795	246.091
427414	-25.709	282.348	-31.179	273.281	4.19193	249.326	-11.3012	256.966	-21.0072	250.784	-29.3214	277.472	-14.1137	270.973	-8.7686	245.925
427415	-25.8582	282.562	-31.3927	273.418	4.0111	249.49	-11.5447	256.96	-21.238	250.701	-29.5121	277.646	-14.1941	271.21	-8.94901	245.76
427416	-26.0073	282.776	-31.6063	273.555	3.83009	249.653	-11.7882	256.954	-21.4686	250.617	-29.7026	277.821	-14.2745	271.447	-9.12918	245.594
427417	-26.1563	282.991	-31.8199	273.692	3.64888	249.816	-12.0317	256.948	-21.6992	250.532	-29.8932	277.995	-14.3548	271.685	-9.30912	245.428
427418	-26.3051	283.205	-32.0335	273.83	3.46748	249.979	-12.2752	256.942	-21.9296	250.448	-30.0836	278.171	-14.4352	271.922	-9.48882	245.261
427419	-26.4537	283.421	-32.247	273.969	3.28589	250.142	-12.5186	256.935	-22.1599	250.362	-30.2739	278.346	-14.5155	272.159	-9.66827	245.094
427420	-26.6023	283.637	-32.4605	274.107	3.10412	250.304	-12.7621	256.928	-22.3901	250.276	-30.4642	278.523	-14.5958	272.397	-9.84748	244.927
427421	-26.7507	283.853	-32.674	274.246	2.92217	250.466	-13.0055	256.921	-22.6202	250.19	-30.6544	278.699	-14.6761	272.635	-10.0265	244.759
427422	-26.899	284.069	-32.8874	274.386	2.74003	250.628	-13.249	256.913	-22.8501	250.103	-30.8444	278.877	-14.7564	272.873	-10.2052	244.591
427423	-27.0471	284.286	-33.1008	274.526	2.55771	250.79	-13.4924	256.906	-23.08	250.015	-31.0344	279.054	-14.8366	273.11	-10.3836	244.422
427424	-27.1952	284.503	-33.3141	274.666	2.37521	250.952	-13.7359	256.897	-23.3096	249.927	-31.2243	279.232	-14.9169	273.348	-10.5619	244.254
427425	-27.343	284.721	-33.5275	274.807	2.19254	251.113	-13.9793	256.889	-23.5392	249.838	-31.4141	279.411	-14.9971	273.586	-10.7398	244.084
427426	-27.4907	284.939	-33.7407	274.948	2.00969	251.274	-14.2227	256.881	-23.7686	249.749	-31.6038	279.59	-15.0773	273.824	-10.9175	243.915
427427	-27.6383	285.158	-33.9539	275.09	1.82666	251.435	-14.4661	256.872	-23.9979	249.659	-31.7934	279.77	-15.1575	274.063	-11.095	243.745
427428	-27.7857	285.377	-34.1671	275.232	1.64347	251.595	-14.7095	256.863	-24.227	249.569	-31.9829	279.95	-15.2377	274.301	-11.2722	243.575
427429	-27.9329	285.596	-34.3802	275.375	1.4601	251.756	-14.9529	256.854	-24.4561	249.478	-32.1723	280.131	-15.3178	274.539	-11.4491	243.404
427430	-28.08	285.816	-34.5933	275.518	1.27656	251.916	-15.1963	256.844	-24.685	249.387	-32.3616	280.312	-15.3979	274.778	-11.6258	243.233
427431	-28.2269	286.036	-34.8063	275.661	1.09286	252.076	-15.4397	256.834	-24.9137	249.294	-32.5508	280.493	-15.478	275.017	-11.8022	243.061
427432	-28.3737	286.257	-35.0192	275.805	0.908992	252.236	-15.683	256.824	-25.1423	249.202	-32.7399	280.676	-15.5581	275.255	-11.9783	242.889
427433	-28.5203	286.478	-35.2322	275.95	0.72496	252.395	-15.9264	256.814	-25.3708	249.109	-32.9288	280.859	-15.6381	275.494	-12.1541	242.717
427434	-28.6668	286.7	-35.445	276.095	0.540766	252.555	-16.1697	256.803	-25.5991	249.015	-33.1177	281.042	-15.7181	275.733	-12.3297	242.544
427435	-28.813	286.922	-35.6578	276.241	0.35641	252.714	-16.413	256.792	-25.8273	248.92	-33.3064	281.226	-15.7981	275.972	-12.505	242.371
427436	-28.9591	287.144	-35.8706	276.387	0.171896	252.873	-16.6563	256.781	-26.0553	248.825	-33.495	281.411	-15.878	276.211	-12.6801	242.198
427437	-29.105	287.367	-36.0832	276.534	-0.0127761	253.032	-16.8996	256.769	-26.2832	248.729	-33.6835	281.596	-15.9579	276.45	-12.8548	242.024
427438	-29.2508	287.591	-36.2958	276.681	-0.197604	253.19	-17.1429	256.757	-26.5109	248.633	-33.8718	281.781	-16.0377	276.69	-13.0293	241.85
427439	-29.3963	287.815	-36.5084	276.828	-0.382586	253.349	-17.3862	256.745	-26.7385	248.536	-34.0601	281.968	-16.1175	276.929	-13.2035	241.675
427440	-29.5417	288.039	-36.7209	276.977	-0.567721	253.507	-17.6295	256.733	-26.9659	248.438	-34.2482	282.155	-16.1973	277.169	-13.3774	241.5
427441	-29.6869	288.264	-36.9333	277.125	-0.753007	253.665	-17.8727	256.721	-27.1932	248.34	-34.4361	282.342	-16.277	277.409	-13.551	241.324
427442	-29.8319	288.49	-37.1456	277.275	-0.938442	253.823	-18.116	256.708	-27.4203	248.241	-34.624	282.531	-16.3567	277.648	-13.7243	241.148
427443	-29.9767	288.715	-37.3579	277.425	-1.12403	253.981	-18.3592	256.694	-27.6473	248.142	-34.8117	282.719	-16.4364	277.888	-13.8973	240.971
427444	-30.1214	288.942	-37.5701	277.575	-1.30976	254.138	-18.6024	256.681	-27.8741	248.041	-34.9992	282.909	-16.516	278.128	-14.07	240.794
427445	-30.2658	289.169	-37.7822	277.726	-1.49563	254.296	-18.8456	256.667	-28.1007	247.94	-35.1866	283.099	-16.5955	278.369	-14.2424	240.617
427446	-30.41	289.396	-37.9943	277.878	-1.68165	254.453	-19.0888	256.653	-28.3272	247.839	-35.3739	283.289	-16.675	278.609	-14.4146	240.439
427447	-30.5541	289.624	-38.2063	278.031	-1.86781	254.611	-19.332	256.639	-28.5535	247.737	-35.561	283.481	-16.7545	278.849	-14.5864	240.261
427448	-30.6979	289.852	-38.4182	278.183	-2.05411	254.768	-19.5751	256.624	-28.7797	247.633	-35.748	283.673	-16.8339	279.09	-14.7579	240.082
427449	-30.8415	290.081	-38.63	278.337	-2.24055	254.924	-19.8183	256.609	-29.0057	247.53	-35.9348	283.866	-16.9132	279.33	-14.9291	239.903
427450	-30.9849	290.311	-38.8417	278.491	-2.42712	255.081	-20.0614	256.594	-29.2315	247.425	-36.1215	284.059	-16.9925	279.571	-15.1	239.723
427451	-31.1281	290.541	-39.0534	278.646	-2.61383	255.238	-20.3045	256.578	-29.4571	247.32	-36.308	284.253	-17.0717	279.812	-15.2706	239.543
427452	-31.2711	290.771	-39.2649	278.802	-2.80068	255.394	-20.5476	256.562	-29.6826	247.214	-36.4943	284.448	-17.1509	280.053	-15.4409	239.363
427453	-31.4139	291.002	-39.4764	278.958	-2.98766	255.55	-20.7907	256.546	-29.9079	247.108	-36.6805	284.644	-17.23	280.294	-15.6108	239.182
427454	-31.5564	291.234	-39.6878	279.115	-3.17477	255.707	-21.0337	256.529	-30.133	247	-36.8665	284.84	-17.3091	280.535	-15.7804	239
427455	-31.6987	291.466	-39.8991	279.273	-3.36201	255.863	-21.2768	256.513	-30.3579	246.893	-37.0524	285.037	-17.3881	280.777	-15.9497	238.818
427456	-31.8408	291.698	-40.1103	279.431	-3.54938	256.019	-21.5198	256.495	-30.5827	246.784	-37.2381	285.234	-17.467	281.018	-16.1187	238.636
427457	-31.9827	291.932	-40.3214	279.59	-3.73687	256.174	-21.7628	256.478	-30.8072	246.674	-37.4236	285.433	-17.5459	281.26	-16.2873	238.453
427458	-32.1243	292.165	-40.5324	279.75	-3.92449	256.33	-22.0058	256.46	-31.0316	246.564	-37.6089	285.632	-17.6247	281.502	-16.4557	238.269
427459	-32.2657	292.4	-40.7433	279.91	-4.11223	256.486	-22.2488	256.442	-31.2558	246.453	-37.794	285.832	-17.7034	281.743	-16.6237	238.085
427460	-32.4069	292.635	-40.9541	280.071	-4.3001	256.641	-22.4917	256.424	-31.4798	246.341	-37.979	286.033	-17.7821	281.985	-16.7913	237.901
427461	-32.5478	292.87	-41.1647	280.233	-4.48808	256.796	-22.7346	256.405	-31.7036	246.228	-38.1638	286.234	-17.8607	282.228	-16.9586	237.716
427462	-32.6885	293.106	-41.3753	280.396	-4.67619	256.952	-22.9776	256.386	-31.9272	246.114	-38.3484	286.437	-17.9392	282.47	-17.1256	237.53
427463	-32.8289	293.343	-41.5858	280.56	-4.86441	257.107	-23.2205	256.367	-32.1506	246	-38.5328	286.64	-18.0176	282.712	-17.2922	237.345
427464	-32.9691	293.58	-41.7961	280.724	-5.05275	257.262	-23.4633	256.347	-32.3738	245.885	-38.7169	286.844	-18.096	282.955	-17.4584	237.158
427465	-33.109	293.817	-42.0064	280.889	-5.24121	257.417	-23.7062	256.327	-32.5969	245.769	-38.901	287.048	-18.1743	283.197	-17.6244	236.971
427466	-33.2487	294.056	-42.2165	281.055	-5.42978	257.572	-23.949	256.307	-32.8197	245.652	-39.0847	287.254	-18.2525	283.44	-17.7899	236.784
427467	-33.3881	294.295	-42.4265	281.222	-5.61846	257.726	-24.1918	256.286	-33.0423	245.534	-39.2683	287.46	-18.3307	283.683	-17.9551	236.596
427468	-33.5272	294.534	-42.6364	281.389	-5.80725	257.881	-24.4346	256.265	-33.2647	245.416	-39.4517	287.667	-18.4088	283.926	-18.12	236.407
427469	-33.6661	294.775	-42.8462	281.558	-5.99615	258.036	-24.6774	256.243	-33.4868	245.296	-39.6349	287.875	-18.4867	284.17	-18.2845	236.218
427470	-33.8047	295.015	-43.0558	281.727	-6.18516	258.19	-24.9201	256.221	-33.7088	245.176	-39.8179	288.084	-18.5646	284.413	-18.4486	236.029
427471	-33.9431	295.257	-43.2653	281.897	-6.37427	258.344	-25.1628	256.199	-33.9305	245.055	-40.0006	288.294	-18.6425	284.656	-18.6124	235.838
427472	-34.0811	295.499	-43.4747	282.068	-6.56349	258.499	-25.4055	256.177	-34.1521	244.933	-40.1831	288.505	-18.7202	284.9	-18.7758	235.648
427473	-34.2189	295.741	-43.684	282.24	-6.75282	258.653	-25.6482	256.154	-34.3734	244.81	-40.3654	288.717	-18.7978	285.144	-18.9388	235.457
427474	-34.3564	295.985	-43.8931	282.413	-6.94224	258.807	-25.8909	256.131	-34.5945	244.686	-40.5475	288.929	-18.8754	285.388	-19.1014	235.265
427475	-34.4937	296.228	-44.102	282.587	-7.13177	258.961	-26.1335	256.107	-34.8153	244.561	-40.7293	289.143	-18.9528	285.632	-19.2637	235.073
427476	-34.6306	296.473	-44.3109	282.762	-7.32139	259.115	-26.3761	256.084	-35.0359	244.435	-40.9109	289.357	-19.0302	285.876	-19.4256	234.88
427477	-34.7672	296.718	-44.5195	282.938	-7.51111	259.269	-26.6186	256.059	-35.2563	244.309	-41.0923	289.572	-19.1075	286.12	-19.5871	234.686
427478	-34.9036	296.964	-44.7281	283.114	-7.70093	259.423	-26.8612	256.035	-35.4765	244.181	-41.2734	289.789	-19.1846	286.365	-19.7482	234.493
427479	-35.0397	297.211	-44.9365	283.292	-7.89085	259.577	-27.1037	256.01	-35.6964	244.052	-41.4543	290.006	-19.2617	286.61	-19.909	234.298
427480	-35.1754	297.458	-45.1447	283.471	-8.08086	259.731	-27.3462	255.984	-35.9161	243.923	-41.6349	290.224	-19.3387	286.854	-20.0693	234.103
427481	-35.3109	297.705	-45.3528	283.651	-8.27096	259.885	-27.5887	255.958	-36.1355	243.792	-41.8153	290.444	-19.4156	287.099	-20.2292	233.907
427482	-35.446	297.954	-45.5607	283.831	-8.46115	260.039	-27.8311	255.932	-36.3547	243.661	-41.9954	290.664	-19.4924	287.345	-20.3888	233.711
427483	-35.5809	298.203	-45.7685	284.013	-8.65143	260.193	-28.0735	255.906	-36.5737	243.528	-42.1753	290.885	-19.5691	287.59	-20.5479	233.514
427484	-35.7154	298.453	-45.9761	284.196	-8.8418	260.346	-28.3159	255.879	-36.7923	243.394	-42.3548	291.107	-19.6456	287.835	-20.7066	233.317
427485	-35.8496	298.703	-46.1835	284.38	-9.03225	260.5	-28.5583	255.851	-37.0108	243.26	-42.5342	291.331	-19.7221	288.081	-20.865	233.119
427486	-35.9835	298.955	-46.3907	284.565	-9.22279	260.654	-28.8006	255.824	-37.2289	243.124	-42.7132	291.555	-19.7985	288.327	-21.0229	232.921
427487	-36.117	299.207	-46.5978	284.751	-9.41342	260.807	-29.0429	255.796	-37.4468	242.987	-42.892	291.78	-19.8747	288.572	-21.1804	232.721
427488	-36.2503	299.459	-46.8047	284.938	-9.60413	260.961	-29.2851	255.767	-37.6644	242.849	-43.0705	292.007	-19.9509	288.818	-21.3374	232.522
427489	-36.3832	299.712	-47.0114	285.127	-9.79492	261.115	-29.5274	255.738	-37.8818	242.71	-43.2487	292.234	-20.0269	289.065	-21.4941	232.321
427490	-36.5157	299.966	-47.218	285.316	-9.98578	261.268	-29.7696	255.709	-38.0989	242.57	-43.4266	292.463	-20.1029	289.311	-21.6503	232.121
427491	-36.648	300.221	-47.4243	285.507	-10.1767	261.422	-30.0117	255.679	-38.3157	242.429	-43.6042	292.693	-20.1787	289.558	-21.8061	231.919
427492	-36.7799	300.476	-47.6305	285.699	-10.3678	261.575	-30.2539	255.649	-38.5322	242.287	-43.7816	292.923	-20.2544	289.804	-21.9615	231.717
427493	-36.9114	300.732	-47.8365	285.892	-10.5589	261.729	-30.496	255.618	-38.7485	242.144	-43.9586	293.156	-20.3299	290.051	-22.1165	231.514
427494	-37.0426	300.989	-48.0422	286.087	-10.75	261.882	-30.738	255.587	-38.9644	241.999	-44.1353	293.389	-20.4054	290.298	-22.271	231.311
427495	-37.1734	301.247	-48.2478	286.282	-10.9413	262.036	-30.9801	255.555	-39.1801	241.853	-44.3117	293.623	-20.4808	290.545	-22.425	231.107
427496	-37.3039	301.505	-48.4532	286.479	-11.1326	262.19	-31.2221	255.523	-39.3955	241.707	-44.4878	293.858	-20.556	290.793	-22.5787	230.903
427497	-37.434	301.764	-48.6583	286.677	-11.324	262.343	-31.464	255.491	-39.6106	241.559	-44.6636	294.095	-20.6311	291.04	-22.7318	230.697
427498	-37.5638	302.024	-48.8633	286.877	-11.5154	262.497	-31.706	255.458	-39.8253	241.409	-44.839	294.333	-20.706	291.288	-22.8846	230.492
427499	-37.6932	302.284	-49.068	287.078	-11.707	262.651	-31.9478	255.425	-40.0398	241.259	-45.0141	294.572	-20.7809	291.536	-23.0368	230.285
427500	-37.8222	302.546	-49.2725	287.28	-11.8986	262.804	-32.1897	255.391	-40.254	241.107	-45.1889	294.812	-20.8556	291.784	-23.1887	230.078
427501	-37.9509	302.808	-49.4768	287.484	-12.0902	262.958	-32.4315	255.357	-40.4678	240.954	-45.3633	295.053	-20.9302	292.032	-23.34	229.871
427502	-38.0791	303.07	-49.6808	287.689	-12.2819	263.111	-32.6733	255.322	-40.6813	240.8	-45.5374	295.296	-21.0047	292.28	-23.4909	229.662
427503	-38.207	303.334	-49.8846	287.895	-12.4737	263.265	-32.915	255.287	-40.8945	240.645	-45.7112	295.54	-21.079	292.529	-23.6413	229.453
427504	-38.3345	303.598	-50.0882	288.103	-12.6656	263.419	-33.1567	255.251	-41.1074	240.488	-45.8846	295.785	-21.1532	292.777	-23.7913	229.244
427505	-38.4616	303.863	-50.2915	288.312	-12.8575	263.573	-33.3984	255.215	-41.3199	240.33	-46.0576	296.032	-21.2272	293.026	-23.9408	229.034
427506	-38.5884	304.129	-50.4946	288.523	-13.0494	263.726	-33.64	255.179	-41.5321	240.171	-46.2303	296.28	-21.3012	293.275	-24.0898	228.823
427507	-38.7147	304.396	-50.6975	288.735	-13.2414	263.88	-33.8816	255.142	-41.744	240.01	-46.4026	296.529	-21.3749	293.524	-24.2383	228.611
427508	-38.8406	304.663	-50.9001	288.949	-13.4335	264.034	-34.1231	255.104	-41.9555	239.848	-46.5746	296.779	-21.4486	293.774	-24.3864	228.399
427509	-38.9661	304.931	-51.1024	289.164	-13.6256	264.188	-34.3646	255.066	-42.1667	239.685	-46.7461	297.031	-21.5221	294.023	-24.5339	228.186
427510	-39.0912	305.2	-51.3045	289.381	-13.8178	264.342	-34.606	255.027	-42.3775	239.52	-46.9173	297.284	-21.5955	294.273	-24.681	227.973
427511	-39.2159	305.47	-51.5062	289.6	-14.01	264.496	-34.8475	254.988	-42.588	239.354	-47.0881	297.539	-21.6687	294.523	-24.8275	227.758
427512	-39.3402	305.74	-51.7078	289.82	-14.2023	264.651	-35.0888	254.949	-42.7981	239.186	-47.2585	297.795	-21.7418	294.773	-24.9736	227.544
427513	-39.464	306.012	-51.909	290.042	-14.3946	264.805	-35.3301	254.909	-43.0078	239.017	-47.4284	298.052	-21.8147	295.023	-25.1192	227.328
427514	-39.5875	306.284	-52.1099	290.265	-14.587	264.959	-35.5714	254.868	-43.2171	238.847	-47.598	298.311	-21.8875	295.273	-25.2643	227.112
427515	-39.7105	306.557	-52.3106	290.49	-14.7794	265.113	-35.8126	254.827	-43.4261	238.675	-47.7672	298.571	-21.9601	295.524	-25.4088	226.895
427516	-39.833	306.831	-52.511	290.717	-14.9719	265.268	-36.0538	254.785	-43.6347	238.502	-47.9359	298.833	-22.0326	295.775	-25.5528	226.678
427517	-39.9552	307.105	-52.7111	290.946	-15.1644	265.422	-36.2949	254.742	-43.8429	238.327	-48.1042	299.096	-22.1049	296.026	-25.6964	226.459
427518	-40.0768	307.381	-52.9108	291.176	-15.3569	265.577	-36.536	254.7	-44.0507	238.15	-48.2721	299.361	-22.1771	296.277	-25.8394	226.241
427519	-40.1981	307.657	-53.1103	291.409	-15.5495	265.732	-36.777	254.656	-44.2581	237.972	-48.4396	299.627	-22.2491	296.528	-25.9819	226.021
427520	-40.3189	307.934	-53.3094	291.642	-15.7422	265.887	-37.018	254.612	-44.4651	237.793	-48.6066	299.894	-22.321	296.779	-26.1238	225.801
427521	-40.4392	308.212	-53.5082	291.878	-15.9348	266.041	-37.2589	254.567	-44.6717	237.612	-48.7732	300.163	-22.3927	297.031	-26.2652	225.58
427522	-40.5591	308.491	-53.7067	292.116	-16.1275	266.196	-37.4998	254.522	-44.8779	237.43	-48.9393	300.434	-22.4642	297.283	-26.4061	225.358
427523	-40.6785	308.77	-53.9049	292.356	-16.3203	266.351	-37.7406	254.476	-45.0836	237.245	-49.1049	300.706	-22.5356	297.535	-26.5465	225.136
427524	-40.7974	309.051	-54.1026	292.598	-16.513	266.507	-37.9813	254.43	-45.289	237.06	-49.2701	300.98	-22.6068	297.787	-26.6863	224.913
427525	-40.9159	309.332	-54.3001	292.841	-16.7058	266.662	-38.2221	254.383	-45.4939	236.872	-49.4348	301.255	-22.6779	298.04	-26.8255	224.689
427526	-41.0339	309.614	-54.4972	293.087	-16.8987	266.817	-38.4627	254.335	-45.6983	236.683	-49.599	301.532	-22.7488	298.292	-26.9642	224.465
427527	-41.1514	309.897	-54.694	293.335	-17.0915	266.973	-38.7033	254.287	-45.9023	236.493	-49.7628	301.811	-22.8195	298.545	-27.1024	224.239
427528	-41.2685	310.181	-54.8903	293.584	-17.2844	267.129	-38.9438	254.238	-46.1059	236.3	-49.926	302.091	-22.89	298.798	-27.24	224.014
427529	-41.385	310.466	-55.0863	293.836	-17.4773	267.284	-39.1843	254.189	-46.309	236.106	-50.0888	302.373	-22.9604	299.051	-27.377	223.787
427530	-41.5011	310.751	-55.282	294.09	-17.6703	267.44	-39.4247	254.139	-46.5116	235.91	-50.251	302.656	-23.0306	299.304	-27.5135	223.56
427531	-41.6167	311.038	-55.4772	294.346	-17.8632	267.596	-39.6651	254.088	-46.7138	235.712	-50.4128	302.942	-23.1007	299.558	-27.6493	223.332
427532	-41.7317	311.325	-55.672	294.605	-18.0562	267.752	-39.9054	254.036	-46.9154	235.513	-50.574	303.228	-23.1705	299.812	-27.7847	223.103
427533	-41.8463	311.613	-55.8665	294.865	-18.2492	267.909	-40.1456	253.984	-47.1166	235.312	-50.7347	303.517	-23.2402	300.065	-27.9194	222.874
427534	-41.9603	311.902	-56.0605	295.128	-18.4422	268.065	-40.3858	253.931	-47.3173	235.109	-50.8948	303.807	-23.3097	300.32	-28.0536	222.644
427535	-42.0738	312.192	-56.2541	295.394	-18.6353	268.222	-40.6259	253.878	-47.5176	234.904	-51.0544	304.099	-23.379	300.574	-28.1871	222.413
427536	-42.1868	312.483	-56.4473	295.661	-18.8283	268.379	-40.8659	253.824	-47.7173	234.697	-51.2134	304.393	-23.4482	300.828	-28.3201	222.181
427537	-42.2993	312.775	-56.64	295.931	-19.0214	268.536	-41.1059	253.769	-47.9164	234.488	-51.3719	304.689	-23.5172	301.083	-28.4525	221.949
427538	-42.4113	313.068	-56.8323	296.203	-19.2145	268.693	-41.3458	253.713	-48.1151	234.278	-51.5299	304.986	-23.5859	301.338	-28.5843	221.716
427539	-42.5227	313.361	-57.0242	296.478	-19.4076	268.85	-41.5857	253.657	-48.3132	234.065	-51.6872	305.286	-23.6545	301.593	-28.7155	221.482
427540	-42.6336	313.656	-57.2156	296.756	-19.6007	269.008	-41.8254	253.6	-48.5109	233.851	-51.844	305.587	-23.723	301.848	-28.8461	221.247
427541	-42.7439	313.951	-57.4065	297.035	-19.7938	269.165	-42.0651	253.542	-48.7079	233.635	-52.0001	305.89	-23.7912	302.104	-28.9761	221.012
427542	-42.8537	314.247	-57.5969	297.318	-19.9869	269.323	-42.3047	253.483	-48.9044	233.416	-52.1557	306.195	-23.8592	302.359	-29.1054	220.776
427543	-42.963	314.544	-57.7869	297.603	-20.1801	269.481	-42.5443	253.424	-49.1004	233.196	-52.3107	306.501	-23.927	302.615	-29.2342	220.539
427544	-43.0717	314.842	-57.9764	297.891	-20.3732	269.639	-42.7838	253.364	-49.2958	232.974	-52.4651	306.81	-23.9947	302.871	-29.3623	220.302
427545	-43.1798	315.141	-58.1653	298.181	-20.5663	269.798	-43.0232	253.303	-49.4906	232.749	-52.6188	307.12	-24.0621	303.127	-29.4898	220.064
427546	-43.2874	315.441	-58.3538	298.474	-20.7595	269.956	-43.2625	253.241	-49.6848	232.523	-52.7719	307.433	-24.1294	303.384	-29.6166	219.825
427547	-43.3944	315.742	-58.5417	298.77	-20.9526	270.115	-43.5017	253.178	-49.8784	232.294	-52.9244	307.747	-24.1964	303.64	-29.7429	219.585
427548	-43.5008	316.043	-58.7291	299.069	-21.1458	270.274	-43.7409	253.115	-50.0715	232.063	-53.0762	308.063	-24.2633	303.897	-29.8684	219.345
427549	-43.6066	316.346	-58.916	299.371	-21.3389	270.433	-43.98	253.051	-50.2639	231.83	-53.2274	308.382	-24.33	304.154	-29.9934	219.103
427550	-43.7119	316.65	-59.1023	299.675	-21.532	270.592	-44.219	252.986	-50.4557	231.595	-53.3779	308.702	-24.3964	304.411	-30.1177	218.862
427551	-43.8166	316.954	-59.288	299.983	-21.7252	270.752	-44.4579	252.92	-50.6469	231.357	-53.5277	309.024	-24.4627	304.669	-30.2413	218.619
427552	-43.9207	317.26	-59.4731	300.293	-21.9183	270.912	-44.6967	252.853	-50.8374	231.118	-53.6769	309.349	-24.5287	304.926	-30.3643	218.375
427553	-44.0241	317.566	-59.6577	300.607	-22.1114	271.072	-44.9355	252.785	-51.0273	230.876	-53.8254	309.675	-24.5946	305.184	-30.4866	218.131
427554	-44.127	317.873	-59.8417	300.923	-22.3045	271.232	-45.1741	252.716	-51.2166	230.632	-53.9731	310.004	-24.6602	305.442	-30.6083	217.886
427555	-44.2293	318.181	-60.025	301.243	-22.4976	271.393	-45.4127	252.647	-51.4051	230.385	-54.1202	310.334	-24.7256	305.7	-30.7293	217.641
427556	-44.3309	318.49	-60.2078	301.566	-22.6907	271.554	-45.6512	252.577	-51.593	230.137	-54.2665	310.667	-24.7908	305.959	-30.8496	217.394
427557	-44.432	318.8	-60.3899	301.893	-22.8837	271.715	-45.8895	252.505	-51.7803	229.885	-54.4121	311.002	-24.8558	306.217	-30.9692	217.147
427558	-44.5324	319.111	-60.5713	302.222	-23.0768	271.876	-46.1278	252.433	-51.9668	229.632	-54.557	311.339	-24.9206	306.476	-31.0882	216.899
427559	-44.6322	319.423	-60.7521	302.555	-23.2698	272.038	-46.366	252.359	-52.1526	229.376	-54.7011	311.678	-24.9852	306.735	-31.2065	216.65
427560	-44.7313	319.736	-60.9323	302.891	-23.4628	272.199	-46.6041	252.285	-52.3377	229.117	-54.8444	312.019	-25.0495	306.994	-31.324	216.401
427561	-44.8299	320.05	-61.1117	303.231	-23.6558	272.361	-46.8421	252.21	-52.5221	228.857	-54.987	312.363	-25.1137	307.253	-31.4409	216.15
427562	-44.9278	320.364	-61.2904	303.575	-23.8488	272.524	-47.08	252.134	-52.7057	228.593	-55.1288	312.708	-25.1776	307.513	-31.5571	215.899
427563	-45.025	320.68	-61.4685	303.921	-24.0417	272.686	-47.3178	252.056	-52.8886	228.327	-55.2698	313.056	-25.2413	307.773	-31.6726	215.648
427564	-45.1216	320.996	-61.6458	304.272	-24.2346	272.849	-47.5555	251.978	-53.0707	228.059	-55.4101	313.406	-25.3048	308.033	-31.7874	215.395
427565	-45.2175	321.314	-61.8224	304.626	-24.4275	273.012	-47.793	251.899	-53.2521	227.788	-55.5495	313.759	-25.368	308.293	-31.9014	215.142
427566	-45.3128	321.632	-61.9982	304.984	-24.6204	273.176	-48.0305	251.818	-53.4327	227.514	-55.6881	314.113	-25.431	308.553	-32.0148	214.888
427567	-45.4074	321.952	-62.1732	305.345	-24.8132	273.34	-48.2679	251.736	-53.6125	227.238	-55.8258	314.47	-25.4938	308.814	-32.1274	214.633
427568	-45.5013	322.272	-62.3475	305.711	-25.006	273.504	-48.5051	251.654	-53.7915	226.959	-55.9628	314.829	-25.5564	309.075	-32.2393	214.378
427569	-45.5946	322.593	-62.5209	306.08	-25.1988	273.668	-48.7422	251.57	-53.9696	226.677	-56.0988	315.19	-25.6187	309.336	-32.3505	214.121
427570	-45.6871	322.915	-62.6936	306.453	-25.3915	273.833	-48.9792	251.485	-54.147	226.393	-56.234	315.554	-25.6808	309.597	-32.4609	213.864
427571	-45.779	323.238	-62.8654	306.83	-25.5842	273.998	-49.2161	251.399	-54.3235	226.106	-56.3684	315.92	-25.7427	309.858	-32.5706	213.607
427572	-45.8702	323.562	-63.0363	307.212	-25.7769	274.163	-49.4529	251.311	-54.4991	225.816	-56.5018	316.289	-25.8044	310.12	-32.6795	213.348
427573	-45.9607	323.887	-63.2064	307.597	-25.9695	274.329	-49.6895	251.222	-54.6739	225.524	-56.6344	316.659	-25.8658	310.382	-32.7878	213.089
427574	-46.0505	324.213	-63.3757	307.987	-26.1621	274.495	-49.9261	251.133	-54.8477	225.228	-56.766	317.033	-25.9269	310.644	-32.8952	212.828
427575	-46.1396	324.54	-63.544	308.381	-26.3546	274.661	-50.1624	251.042	-55.0207	224.93	-56.8968	317.408	-25.9879	310.906	-33.0019	212.568
427576	-46.228	324.868	-63.7114	308.779	-26.547	274.828	-50.3987	250.949	-55.1928	224.629	-57.0266	317.786	-26.0485	311.169	-33.1078	212.306
427577	-46.3157	325.196	-63.8778	309.181	-26.7395	274.995	-50.6349	250.856	-55.364	224.325	-57.1554	318.166	-26.109	311.431	-33.213	212.044
427578	-46.4027	325.526	-64.0434	309.588	-26.9319	275.162	-50.8708	250.761	-55.5343	224.018	-57.2833	318.549	-26.1692	311.694	-33.3174	211.781
427579	-46.4889	325.856	-64.2079	309.999	-27.1242	275.33	-51.1067	250.664	-55.7035	223.708	-57.4103	318.934	-26.2291	311.957	-33.421	211.517
427580	-46.5744	326.188	-64.3714	310.415	-27.3165	275.498	-51.3424	250.567	-55.8719	223.395	-57.5362	319.322	-26.2889	312.221	-33.5239	211.252
427581	-46.6592	326.52	-64.534	310.836	-27.5087	275.666	-51.578	250.468	-56.0392	223.079	-57.6612	319.712	-26.3483	312.484	-33.626	210.987
427582	-46.7432	326.853	-64.6955	311.261	-27.7009	275.835	-51.8134	250.367	-56.2056	222.76	-57.7852	320.104	-26.4075	312.748	-33.7272	210.721
427583	-46.8265	327.188	-64.8559	311.69	-27.893	276.005	-52.0487	250.265	-56.3709	222.438	-57.9082	320.499	-26.4665	313.012	-33.8277	210.454
427584	-46.909	327.523	-65.0153	312.125	-28.0851	276.174	-52.2838	250.162	-56.5353	222.113	-58.0301	320.896	-26.5252	313.276	-33.9274	210.186
427585	-46.9908	327.859	-65.1736	312.564	-28.277	276.344	-52.5188	250.057	-56.6986	221.784	-58.151	321.296	-26.5837	313.54	-34.0263	209.918
427586	-47.0718	328.195	-65.3308	313.009	-28.469	276.515	-52.7536	249.951	-56.8608	221.453	-58.2709	321.699	-26.6419	313.804	-34.1244	209.649
427587	-47.1521	328.533	-65.4868	313.458	-28.6608	276.685	-52.9883	249.843	-57.022	221.118	-58.3896	322.103	-26.6998	314.069	-34.2217	209.379
427588	-47.2316	328.872	-65.6417	313.912	-28.8526	276.857	-53.2227	249.734	-57.1821	220.78	-58.5074	322.511	-26.7575	314.334	-34.3181	209.108
427589	-47.3103	329.212	-65.7954	314.372	-29.0444	277.028	-53.4571	249.623	-57.3411	220.439	-58.624	322.921	-26.8149	314.599	-34.4138	208.837
427590	-47.3883	329.552	-65.9479	314.836	-29.236	277.2	-53.6912	249.51	-57.499	220.095	-58.7395	323.333	-26.8721	314.864	-34.5086	208.565
427591	-47.4654	329.893	-66.0991	315.305	-29.4276	277.373	-53.9252	249.396	-57.6558	219.748	-58.8539	323.748	-26.929	315.13	-34.6026	208.292
427592	-47.5418	330.236	-66.2491	315.78	-29.6191	277.546	-54.159	249.28	-57.8114	219.397	-58.9672	324.165	-26.9857	315.396	-34.6958	208.019
427593	-47.6174	330.579	-66.3979	316.26	-29.8106	277.719	-54.3926	249.162	-57.9658	219.043	-59.0794	324.585	-27.042	315.661	-34.7881	207.745
427594	-47.6922	330.923	-66.5453	316.746	-30.0019	277.893	-54.626	249.042	-58.1191	218.685	-59.1904	325.008	-27.0982	315.928	-34.8796	207.47
427595	-47.7662	331.268	-66.6914	317.237	-30.1932	278.067	-54.8593	248.921	-58.2712	218.324	-59.3002	325.433	-27.154	316.194	-34.9702	207.194
427596	-47.8393	331.614	-66.8362	317.733	-30.3844	278.242	-55.0923	248.798	-58.422	217.96	-59.4089	325.86	-27.2096	316.461	-35.06	206.918
427597	-47.9117	331.96	-66.9795	318.235	-30.5755	278.417	-55.3252	248.673	-58.5716	217.592	-59.5164	326.29	-27.2649	316.727	-35.149	206.641
427598	-47.9832	332.308	-67.1215	318.742	-30.7665	278.592	-55.5579	248.547	-58.72	217.221	-59.6226	326.723	-27.3199	316.994	-35.2371	206.363
427599	-48.054	332.656	-67.262	319.255	-30.9575	278.769	-55.7903	248.418	-58.8671	216.847	-59.7277	327.158	-27.3747	317.261	-35.3243	206.084
427600	-48.1239	333.005	-67.4011	319.774	-31.1483	278.945	-56.0226	248.287	-59.0129	216.469	-59.8315	327.596	-27.4292	317.529	-35.4107	205.805
427601	-48.193	333.355	-67.5387	320.298	-31.339	279.122	-56.2546	248.155	-59.1574	216.087	-59.9341	328.036	-27.4834	317.796	-35.4962	205.525
427602	-48.2612	333.706	-67.6748	320.828	-31.5297	279.3	-56.4864	248.02	-59.3006	215.702	-60.0354	328.478	-27.5373	318.064	-35.5808	205.245
427603	-48.3286	334.058	-67.8093	321.364	-31.7203	279.478	-56.718	247.883	-59.4425	215.314	-60.1355	328.923	-27.591	318.332	-35.6645	204.963
427604	-48.3952	334.41	-67.9423	321.906	-31.9107	279.657	-56.9494	247.744	-59.583	214.922	-60.2343	329.371	-27.6444	318.6	-35.7474	204.681
427605	-48.4609	334.764	-68.0737	322.453	-32.1011	279.836	-57.1805	247.603	-59.7221	214.526	-60.3317	329.821	-27.6975	318.868	-35.8293	204.399
427606	-48.5257	335.118	-68.2034	323.006	-32.2913	280.015	-57.4114	247.46	-59.8598	214.127	-60.4279	330.274	-27.7503	319.137	-35.9104	204.115
427607	-48.5897	335.473	-68.3315	323.566	-32.4815	280.196	-57.642	247.315	-59.9961	213.725	-60.5228	330.729	-27.8028	319.406	-35.9906	203.831
427608	-48.6529	335.829	-68.4579	324.131	-32.6715	280.376	-57.8724	247.167	-60.131	213.318	-60.6163	331.187	-27.855	319.675	-36.0699	203.547
427609	-48.7152	336.185	-68.5826	324.702	-32.8615	280.558	-58.1026	247.017	-60.2644	212.908	-60.7084	331.647	-27.907	319.944	-36.1483	203.261
427610	-48.7766	336.543	-68.7055	325.279	-33.0513	280.74	-58.3325	246.865	-60.3963	212.495	-60.7993	332.109	-27.9587	320.213	-36.2258	202.975
427611	-48.8371	336.901	-68.8267	325.863	-33.241	280.922	-58.5621	246.71	-60.5267	212.078	-60.8887	332.574	-28.01	320.483	-36.3023	202.689
427612	-48.8968	337.26	-68.946	326.452	-33.4306	281.105	-58.7915	246.552	-60.6556	211.657	-60.9767	333.041	-28.0611	320.752	-36.378	202.401
427613	-48.9555	337.619	-69.0635	327.047	-33.6201	281.288	-59.0206	246.393	-60.783	211.233	-61.0634	333.511	-28.1119	321.022	-36.4527	202.113
427614	-49.0134	337.979	-69.1791	327.648	-33.8094	281.473	-59.2494	246.23	-60.9088	210.805	-61.1486	333.983	-28.1624	321.293	-36.5266	201.825
427615	-49.0704	338.341	-69.2929	328.255	-33.9986	281.657	-59.4779	246.065	-61.0331	210.373	-61.2324	334.457	-28.2126	321.563	-36.5994	201.535
427616	-49.1265	338.702	-69.4046	328.869	-34.1877	281.842	-59.7061	245.897	-61.1557	209.938	-61.3148	334.934	-28.2626	321.833	-36.6714	201.245
427617	-49.1817	339.065	-69.5144	329.488	-34.3767	282.028	-59.934	245.726	-61.2768	209.499	-61.3957	335.413	-28.3122	322.104	-36.7424	200.955
427618	-49.236	339.428	-69.6223	330.114	-34.5656	282.215	-60.1616	245.553	-61.3962	209.057	-61.4751	335.894	-28.3615	322.375	-36.8125	200.664
427619	-49.2894	339.793	-69.728	330.745	-34.7543	282.402	-60.3889	245.377	-61.5139	208.611	-61.5531	336.378	-28.4105	322.646	-36.8816	200.372
427620	-49.3419	340.157	-69.8317	331.383	-34.9428	282.59	-60.6159	245.198	-61.63	208.161	-61.6296	336.864	-28.4592	322.918	-36.9498	200.08
427621	-49.3935	340.523	-69.9334	332.026	-35.1313	282.778	-60.8425	245.016	-61.7443	207.708	-61.7046	337.352	-28.5076	323.189	-37.0171	199.787
427622	-49.4441	340.889	-70.0328	332.675	-35.3196	282.967	-61.0688	244.83	-61.857	207.251	-61.7781	337.842	-28.5557	323.461	-37.0834	199.493
427623	-49.4939	341.256	-70.1302	333.33	-35.5077	283.157	-61.2948	244.642	-61.9678	206.791	-61.85	338.335	-28.6035	323.733	-37.1487	199.199
427624	-49.5427	341.623	-70.2253	333.991	-35.6957	283.348	-61.5204	244.45	-62.077	206.327	-61.9204	338.829	-28.651	324.005	-37.2131	198.904
427625	-49.5905	341.991	-70.3182	334.658	-35.8836	283.538	-61.7456	244.256	-62.1843	205.859	-61.9893	339.326	-28.6982	324.277	-37.2765	198.609
427626	-49.6375	342.36	-70.4089	335.331	-36.0713	283.73	-61.9704	244.057	-62.2899	205.388	-62.0566	339.825	-28.7451	324.55	-37.3389	198.313
427627	-49.6835	342.729	-70.4972	336.009	-36.2589	283.923	-62.1949	243.856	-62.3936	204.913	-62.1223	340.326	-28.7916	324.822	-37.4004	198.017
427628	-49.7285	343.099	-70.5832	336.692	-36.4463	284.116	-62.419	243.651	-62.4955	204.435	-62.1864	340.829	-28.8379	325.095	-37.4609	197.72
427629	-49.7726	343.47	-70.6669	337.382	-36.6335	284.31	-62.6427	243.442	-62.5955	203.954	-62.249	341.334	-28.8838	325.368	-37.5204	197.422
427630	-49.8158	343.841	-70.7482	338.077	-36.8206	284.504	-62.866	243.23	-62.6936	203.469	-62.3099	341.841	-28.9294	325.641	-37.5789	197.124
427631	-49.858	344.213	-70.8271	338.776	-37.0075	284.699	-63.0888	243.014	-62.7899	202.981	-62.3692	342.349	-28.9748	325.915	-37.6365	196.825
427632	-49.8993	344.585	-70.9035	339.482	-37.1943	284.895	-63.3112	242.794	-62.8842	202.489	-62.4269	342.86	-29.0197	326.188	-37.693	196.526
427633	-49.9396	344.958	-70.9775	340.192	-37.3808	285.092	-63.5332	242.57	-62.9765	201.994	-62.4829	343.372	-29.0644	326.462	-37.7486	196.226
427634	-49.979	345.332	-71.0489	340.908	-37.5672	285.29	-63.7547	242.342	-63.0669	201.495	-62.5373	343.886	-29.1088	326.736	-37.8032	195.926
427635	-50.0174	345.706	-71.1179	341.628	-37.7535	285.488	-63.9758	242.111	-63.1553	200.994	-62.5901	344.402	-29.1528	327.01	-37.8568	195.625
427636	-50.0548	346.08	-71.1842	342.353	-37.9395	285.687	-64.1963	241.874	-63.2417	200.489	-62.6411	344.92	-29.1965	327.285	-37.9093	195.324
427637	-50.0913	346.456	-71.248	343.083	-38.1254	285.887	-64.4164	241.634	-63.326	199.981	-62.6905	345.439	-29.2399	327.559	-37.9609	195.022
427638	-50.1267	346.831	-71.3092	343.817	-38.3111	286.087	-64.636	241.389	-63.4084	199.47	-62.7382	345.96	-29.283	327.834	-38.0115	194.72
427639	-50.1613	347.207	-71.3677	344.556	-38.4966	286.288	-64.8551	241.14	-63.4886	198.955	-62.7842	346.483	-29.3257	328.109	-38.061	194.417
427640	-50.1948	347.584	-71.4235	345.299	-38.6819	286.491	-65.0736	240.886	-63.5668	198.438	-62.8285	347.006	-29.3681	328.384	-38.1095	194.114
427641	-50.2273	347.961	-71.4767	346.046	-38.867	286.694	-65.2916	240.628	-63.6429	197.918	-62.8711	347.532	-29.4102	328.659	-38.1571	193.811
427642	-50.2589	348.339	-71.5272	346.796	-39.0519	286.897	-65.509	240.364	-63.7168	197.394	-62.912	348.058	-29.452	328.935	-38.2036	193.507
427643	-50.2895	348.716	-71.5749	347.551	-39.2366	287.102	-65.7258	240.096	-63.7886	196.868	-62.9511	348.587	-29.4934	329.21	-38.2491	193.202
427644	-50.3191	349.095	-71.6198	348.309	-39.4212	287.308	-65.9421	239.822	-63.8583	196.339	-62.9885	349.116	-29.5345	329.486	-38.2935	192.897
427645	-50.3477	349.474	-71.662	349.07	-39.6055	287.514	-66.1578	239.544	-63.9258	195.808	-63.0241	349.647	-29.5753	329.762	-38.3369	192.592
427646	-50.3753	349.853	-71.7014	349.835	-39.7896	287.721	-66.3728	239.26	-63.9911	195.273	-63.058	350.179	-29.6157	330.038	-38.3793	192.286
427647	-50.4019	350.233	-71.738	350.602	-39.9735	287.929	-66.5872	238.971	-64.0542	194.737	-63.0902	350.712	-29.6558	330.315	-38.4207	191.98
427648	-50.4275	350.613	-71.7717	351.373	-40.1571	288.138	-66.8009	238.676	-64.115	194.197	-63.1205	351.246	-29.6955	330.591	-38.461	191.673
427649	-50.4522	350.993	-71.8026	352.145	-40.3406	288.348	-67.014	238.375	-64.1736	193.655	-63.1491	351.781	-29.735	330.868	-38.5003	191.366
427650	-50.4758	351.374	-71.8307	352.92	-40.5238	288.559	-67.2263	238.069	-64.23	193.111	-63.176	352.317	-29.774	331.145	-38.5386	191.059
427651	-50.4984	351.755	-71.8558	353.697	-40.7068	288.77	-67.438	237.756	-64.2841	192.564	-63.201	352.854	-29.8128	331.422	-38.5758	190.751
427652	-50.52	352.136	-71.8781	354.477	-40.8896	288.983	-67.6489	237.438	-64.336	192.016	-63.2242	353.392	-29.8512	331.699	-38.612	190.443
427653	-50.5406	352.518	-71.8975	355.257	-41.0721	289.196	-67.859	237.113	-64.3855	191.464	-63.2457	353.93	-29.8893	331.976	-38.6471	190.135
427654	-50.5602	352.9	-71.9139	356.039	-41.2544	289.411	-68.0684	236.781	-64.4327	190.911	-63.2653	354.469	-29.927	332.254	-38.6811	189.826
427655	-50.5788	353.282	-71.9275	356.823	-41.4365	289.626	-68.277	236.444	-64.4776	190.357	-63.2832	355.009	-29.9643	332.532	-38.7141	189.517
427656	-50.5964	353.664	-71.9381	357.607	-41.6183	289.843	-68.4848	236.099	-64.5202	189.8	-63.2992	355.55	-30.0014	332.809	-38.7461	189.207
427657	-50.6129	354.047	-71.9458	358.392	-41.7999	290.06	-68.6916	235.747	-64.5604	189.241	-63.3135	356.091	-30.0381	333.087	-38.777	188.898
427658	-50.6285	354.43	-71.9506	359.178	-41.9812	290.279	-68.8977	235.388	-64.5983	188.681	-63.3259	356.633	-30.0744	333.366	-38.8069	188.588
427659	-50.643	354.813	-71.9524	359.964	-42.1623	290.498	-69.1028	235.022	-64.6338	188.119	-63.3365	357.175	-30.1104	333.644	-38.8357	188.277
427660	-50.6566	355.197	-71.9513	0.74961	-42.3431	290.718	-69.307	234.649	-64.6669	187.555	-63.3453	357.717	-30.146	333.923	-38.8634	187.967
427661	-50.6691	355.58	-71.9473	1.5353	-42.5236	290.94	-69.5102	234.267	-64.6976	186.991	-63.3523	358.26	-30.1813	334.201	-38.8901	187.656
427662	-50.6805	355.964	-71.9403	2.32054	-42.7039	291.162	-69.7125	233.878	-64.7259	186.424	-63.3575	358.802	-30.2163	334.48	-38.9156	187.345
427663	-50.691	356.348	-71.9304	3.1051	-42.8839	291.386	-69.9138	233.481	-64.7519	185.857	-63.3608	359.345	-30.2508	334.759	-38.9402	187.033
427664	-50.7004	356.732	-71.9176	3.88875	-43.0636	291.61	-70.114	233.075	-64.7754	185.289	-63.3623	359.888	-30.2851	335.038	-38.9637	186.722
427665	-50.7089	357.116	-71.9018	4.67124	-43.2431	291.836	-70.3131	232.661	-64.7965	184.719	-63.362	0.43128	-30.319	335.317	-38.986	186.41
427666	-50.7163	357.501	-71.8832	5.45235	-43.4222	292.063	-70.5111	232.239	-64.8152	184.149	-63.3599	0.974307	-30.3525	335.597	-39.0074	186.098
427667	-50.7226	357.885	-71.8617	6.23186	-43.6011	292.291	-70.708	231.807	-64.8314	183.578	-63.3559	1.51723	-30.3857	335.877	-39.0276	185.785
427668	-50.728	358.27	-71.8372	7.00952	-43.7797	292.52	-70.9037	231.366	-64.8452	183.006	-63.3502	2.05997	-30.4185	336.156	-39.0468	185.473
427669	-50.7323	358.654	-71.8099	7.78514	-43.958	292.75	-71.0982	230.916	-64.8566	182.434	-63.3426	2.60248	-30.4509	336.436	-39.0649	185.16
427670	-50.7356	359.039	-71.7797	8.55847	-44.136	292.981	-71.2915	230.457	-64.8655	181.861	-63.3332	3.14468	-30.483	336.716	-39.0819	184.847
427671	-50.7379	359.424	-71.7467	9.32932	-44.3137	293.213	-71.4834	229.987	-64.872	181.288	-63.322	3.68652	-30.5148	336.996	-39.0979	184.534
427672	-50.7392	359.808	-71.7108	10.0975	-44.4911	293.447	-71.674	229.508	-64.8761	180.715	-63.3089	4.22793	-30.5461	337.277	-39.1128	184.221
427673	-50.7394	0.193136	-71.6722	10.8627	-44.6681	293.682	-71.8633	229.018	-64.8776	180.141	-63.2941	4.76884	-30.5771	337.557	-39.1266	183.908
427674	-50.7386	0.577874	-71.6307	11.6249	-44.8449	293.918	-72.0511	228.518	-64.8768	179.568	-63.2775	5.3092	-30.6078	337.838	-39.1393	183.594
427675	-50.7368	0.962593	-71.5864	12.3837	-45.0213	294.155	-72.2374	228.007	-64.8735	178.994	-63.259	5.84894	-30.6381	338.119	-39.1509	183.281
427676	-50.7339	1.34728	-71.5394	13.1391	-45.1974	294.393	-72.4223	227.484	-64.8677	178.421	-63.2387	6.388	-30.668	338.399	-39.1615	182.967
427677	-50.7301	1.73191	-71.4896	13.8908	-45.3732	294.632	-72.6056	226.951	-64.8595	177.848	-63.2167	6.92632	-30.6976	338.68	-39.1709	182.653
427678	-50.7252	2.11648	-71.4372	14.6387	-45.5486	294.873	-72.7873	226.406	-64.8489	177.276	-63.1928	7.46383	-30.7268	338.962	-39.1793	182.339
427679	-50.7193	2.50097	-71.382	15.3826	-45.7237	295.115	-72.9673	225.849	-64.8358	176.704	-63.1672	8.00048	-30.7556	339.243	-39.1866	182.025
427680	-50.7123	2.88536	-71.3241	16.1223	-45.8984	295.359	-73.1456	225.28	-64.8203	176.132	-63.1398	8.5362	-30.784	339.524	-39.1928	181.711
